#RRF 1 1 20110412-CVS
#date 2011-04-12
#title ""
#instrument XRAY
#monitor 1.
#temperature 0
#field 0
#wavelength 1.5417
#spec XRD1.uxd*100.0 XRD2.uxd
#back XRD1Backgroundbkg.uxd*100.0 XRD2Backgroundbkg.uxd
#footprint 67855000(9618600) + 18780000(308630) from Qz=0.027741 to Qz=0.029590, 20788000(419840) above
#columns Qz R dR
0.0277409373894 0.964449279991 0.0191657898234
0.0278831980533 0.971750231243 0.0193428522846
0.0280254587087 0.982632106826 0.0195914592259
0.0281677193555 0.985954725139 0.0196908641931
0.0283099799938 0.987289083839 0.0197510650512
0.0284522406234 0.996560199596 0.0199695284674
0.0285945012444 0.997333359071 0.020019171585
0.0287367618567 1.00135233088 0.0201338311486
0.0288790224602 1.00177635016 0.0201768750698
0.0290212830549 1.00269638161 0.020229985101
0.0291635436408 1.0051907953 0.0203148783036
0.0293058042177 1.00710508997 0.020388357283
0.0294480647858 1.00629137234 0.0204070620737
0.0295903253449 1.01102976242 0.0205379287097
0.029732585895 1.00832211757 0.0204832459927
0.029874846436 1.00852965409 0.0204874401958
0.0300171069679 1.00412980634 0.0203985775178
0.0301593674907 1.00824940774 0.0204817791144
0.0303016280043 1.00622115142 0.0204408146234
0.0304438885086 1.01083142692 0.0205339261923
0.0305861490037 1.01074002684 0.0205320802177
0.0307284094895 1.01180315404 0.0205535518169
0.0308706699659 1.01094687965 0.0205362579497
0.0310129304329 1.01077370055 0.0205327603136
0.0311551908904 1.01459738843 0.0206099833169
0.0312974513385 1.01037786966 0.0205247605768
0.031439711777 1.00896770057 0.0204962772991
0.031581972206 1.01459533731 0.0206099341661
0.0317242326253 1.0151124034 0.0206203750531
0.031866493035 1.01269504601 0.0205715504331
0.032008753435 1.01263484847 0.0205703325795
0.0321510138252 1.01257946145 0.0205692119107
0.0322932742056 1.01995826305 0.0207182405616
0.0324355345762 1.01526744413 0.0206235032568
0.0325777949369 1.01752784149 0.0206691572803
0.0327200552876 1.01601197256 0.0206385433805
0.0328623156285 1.01577996335 0.0206338605989
0.0330045759593 1.01350828929 0.0205879834831
0.03314683628 1.01547469242 0.0206277013676
0.0332890965907 1.01426614555 0.0206032959718
0.0334313568912 1.01414519859 0.0206008506001
0.0335736171815 1.0167999276 0.0206544646059
0.0337158774616 1.01524544261 0.020623066652
0.0338581377314 1.01650992836 0.0206486024909
0.0340003979909 1.01213852374 0.0205603197569
0.0341426582401 1.01308756563 0.0205794923471
0.0342849184788 1.01486401872 0.0206153759843
0.0344271787072 1.01454789114 0.0206089966597
0.034569438925 1.01808047602 0.0206803381537
0.0347116991323 1.01512365554 0.020620615615
0.034853959329 1.01599601716 0.0206382297795
0.0349962195151 1.01359721818 0.0205897775798
0.0351384796905 1.01023771346 0.020521912734
0.0352807398553 1.01547943691 0.0206277672663
0.0354230000093 1.01232197446 0.0205639894616
0.0355652601525 1.00947719648 0.0205065300585
0.0357075202848 1.01158868529 0.020549175176
0.0358497804063 1.00827389592 0.0204822274524
0.0359920405169 1.01329575555 0.0205836524164
0.0361343006165 1.01005312414 0.0205181620482
0.0362765607051 1.01589872163 0.0206362236441
0.0364188207827 1.01118634228 0.0205410489736
0.0365610808491 1.00738315316 0.0204642369195
0.0367033409044 1.00308447942 0.0203774177041
0.0368456009486 1.00513570568 0.0204188454559
0.0369878609815 1.0064324898 0.020445035875
0.0371301210031 1.00326991234 0.020381161944
0.0372723810135 1.00383549586 0.0203925845312
0.0374146410124 1.00277512014 0.0203711681184
0.037556901 1.00646626008 0.0204457167628
0.0376991609762 0.99893314459 0.0202935727126
0.0378414209408 1.00095855279 0.0203344792453
0.037983680894 1.00198818123 0.0203552743156
0.0381259408355 0.996749688682 0.0202494740513
0.0382682007655 0.999099676757 0.0202969357545
0.0384104606838 0.99528737552 0.0202199395616
0.0385527205904 0.995270582689 0.0202196001061
0.0386949804852 0.990645301833 0.020126184392
0.0388372403683 0.991435660203 0.0201421468519
0.0389795002395 0.990550936145 0.0201242782924
0.0391217600989 0.987549578757 0.020063660713
0.0392640199463 0.987251739395 0.0200576452887
0.0394062797818 0.985005635262 0.0200122813314
0.0395485396053 0.984691003069 0.0200059264475
0.0396907994167 0.984280160269 0.0199976284257
0.039833059216 0.983142927394 0.019974659714
0.0399753190032 0.979287744901 0.0198967973545
0.0401175787783 0.975999346141 0.0198303822574
0.0402598385411 0.976188101945 0.0198341943638
0.0404020982916 0.973716634495 0.0197842786946
0.0405443580298 0.972596926059 0.0197616641175
0.0406866177557 0.966690739976 0.0196423783835
0.0408288774692 0.967601202559 0.019660766586
0.0409711371703 0.964687293559 0.0196019150124
0.0411133968588 0.958598434561 0.0194789398282
0.0412556565349 0.959018223055 0.0194874180236
0.0413979161984 0.959630122623 0.0194997762731
0.0415401758492 0.955137739409 0.0194090447358
0.0416824354875 0.956081255431 0.0194281005945
0.041824695113 0.950453587068 0.0193144399892
0.0419669547258 0.942834359161 0.0191605563439
0.0421092143258 0.942482331607 0.0191534466434
0.0422514739129 0.937286100045 0.0190484997895
0.0423937334872 0.937155356886 0.0190458593131
0.0425359930486 0.93675522403 0.0190377780411
0.042678252597 0.932931067155 0.0189605424777
0.0428205121325 0.926750823987 0.0188357214662
0.0429627716548 0.92027713847 0.0187049738351
0.0431050311641 0.923501482031 0.0187700949608
0.0432472906603 0.913448761973 0.018567062385
0.0433895501433 0.913468544847 0.018567461864
0.0435318096131 0.913690369993 0.0185719419438
0.0436740690696 0.901876248336 0.0183333347386
0.0438163285128 0.896594826824 0.0182266669532
0.0439585879426 0.889081374918 0.0180749192853
0.0441008473591 0.890183638439 0.0180971813823
0.0442431067622 0.884565591137 0.017983714759
0.0443853661517 0.880414755573 0.017899881086
0.0445276255278 0.874421486907 0.0177788361341
0.0446698848902 0.868726359789 0.0176638126687
0.0448121442391 0.864575412895 0.0175799766936
0.0449544035743 0.862603636226 0.0175401530064
0.0450966628958 0.853728748581 0.0173609083996
0.0452389222036 0.843419877582 0.0171527018397
0.0453811814976 0.841168199504 0.0171072251077
0.0455234407778 0.830623167197 0.016894248751
0.0456657000441 0.822060073369 0.0167213012082
0.0458079592965 0.822550397562 0.0167312042699
0.045950218535 0.812969220804 0.0165376942941
0.0460924777594 0.803412096699 0.0163446699872
0.0462347369699 0.79687117509 0.0162125634915
0.0463769961662 0.78854554674 0.0160444113802
0.0465192553484 0.77683247803 0.015807843428
0.0466615145164 0.77297898879 0.0157300148262
0.0468037736702 0.761957809409 0.0155074207895
0.0469460328098 0.753110989722 0.0153287420283
0.0470882919351 0.742599726553 0.0151164464206
0.047230551046 0.729294181461 0.014847714425
0.0473728101425 0.717398121745 0.0146074495269
0.0475150692246 0.707089537026 0.0143992466669
0.0476573282922 0.699123680563 0.0142383598205
0.0477995873453 0.68390297185 0.0139309461254
0.0479418463839 0.675094127463 0.0137530331889
0.0480841054078 0.660868625961 0.0134657191563
0.0482263644171 0.649678569076 0.0132397120404
0.0483686234117 0.635987036439 0.0129631818314
0.0485108823916 0.622599966802 0.0126928001813
0.0486531413567 0.60390207172 0.012315153799
0.0487954003069 0.592771140792 0.0120903388592
0.0489376592424 0.575425004722 0.0117399927135
0.0490799181629 0.560888043396 0.0114463836792
0.0492221770684 0.545066495531 0.0111268284476
0.049364435959 0.527214903881 0.0107662702275
0.0495066948345 0.513899642301 0.0104973337543
0.0496489536949 0.499410611329 0.0102046889536
0.0497912125402 0.48071223911 0.00982702360039
0.0499334713704 0.465159953706 0.00951290057817
0.0500757301853 0.451478964587 0.00923657242997
0.050217988985 0.437365027743 0.0089514982002
0.0503602477694 0.422269305343 0.008646592172
0.0505025065384 0.40778408292 0.00835401538224
0.0506447652921 0.393683702919 0.00806920980888
0.0507870240303 0.37846246936 0.00776176232788
0.0509292827531 0.363501004436 0.00745955908502
0.0510715414603 0.352649465973 0.00724036891343
0.051213800152 0.341797927511 0.00702117695786
0.0513560588281 0.326169532464 0.00670549319033
0.0514983174886 0.316246426349 0.00650505016777
0.0516405761333 0.308829033956 0.00635522041006
0.0517828347624 0.293170630606 0.00603892026381
0.0519250933756 0.285531381258 0.00588460502149
0.0520673519731 0.269949946393 0.0055698498861
0.0522096105546 0.259847705534 0.00536577386985
0.0523518691203 0.250934158698 0.00518570740826
0.05249412767 0.237551629215 0.00491535493911
0.0526363862038 0.227651923669 0.00471535660356
0.0527786447215 0.216568827669 0.00449144453123
0.0529209032231 0.208530837107 0.00432904794395
0.0530631617086 0.198876548128 0.00413399021998
0.0532054201779 0.187245131196 0.00389897602853
0.0533476786311 0.177985305699 0.00371187084825
0.053489937068 0.167354479069 0.00349705117112
0.0536321954886 0.160297160749 0.00335443447102
0.0537744538928 0.153884453487 0.00322483782744
0.0539167122807 0.146033397668 0.00306616346321
0.0540589706521 0.139067479422 0.00292536813246
0.0542012290071 0.131991412019 0.00278233472434
0.0543434873456 0.126546607425 0.0026722657237
0.0544857456675 0.123463773206 0.00260994077261
0.0546280039728 0.117388789143 0.00248711567295
0.0547702622615 0.115648092877 0.00245191901456
0.0549125205335 0.111457214433 0.00236717770405
0.0550547787887 0.108901916291 0.00231550526352
0.0551970370272 0.10735201898 0.00228416268006
0.0553392952489 0.105354742352 0.00224377108677
0.0554815534537 0.104132764278 0.00221905715263
0.0556238116417 0.100506324231 0.00214570829081
0.0557660698126 0.10119011933 0.00215953844247
0.0559083279666 0.0998871654167 0.00213318289544
0.0560505861036 0.0971554840051 0.00207792527114
0.0561928442235 0.0968092530595 0.00207092118395
0.0563351023262 0.0945965363589 0.00202615793175
0.0564773604118 0.0935720206416 0.00200543077432
0.0566196184803 0.0936587374226 0.00200718501743
0.0567618765314 0.0899832934701 0.00193282123007
0.0569041345653 0.0895834946077 0.00192473227766
0.0570463925818 0.0850273975692 0.00183253451255
0.057188650581 0.0829727762851 0.00179095122804
0.0573309085627 0.0816108713636 0.00176338573949
0.057473166527 0.0766761897391 0.00166348507965
0.0576154244737 0.0742862786413 0.00161509099243
0.0577576824029 0.0713335354988 0.00155528941328
0.0578999403146 0.0661679484197 0.00145063946581
0.0580421982085 0.06447487237 0.00141632905898
0.0581844560848 0.0609867766752 0.00134562535826
0.0583267139434 0.0578835234041 0.00128269875127
0.0584689717842 0.0537652482406 0.00119914881819
0.0586112296072 0.0511478585298 0.00114602020031
0.0587534874124 0.0480750270792 0.00108360987598
0.0588957451996 0.0446077321443 0.00101313651665
0.0590380029689 0.0416407323599 0.000952779046698
0.0591802607203 0.0389912275752 0.000898830852601
0.0593225184535 0.0364809896019 0.000847667672805
0.0594647761688 0.0352885983629 0.00082334378263
0.0596070338659 0.0320469212177 0.000757141250737
0.0597492915448 0.0311383512661 0.00073856125097
0.0598915492056 0.0292051383611 0.000698989566325
0.0600338068481 0.027568412938 0.000665444180687
0.0601760644723 0.0266917513018 0.000647457924651
0.0603183220782 0.0272726803456 0.000659385453788
0.0604605796657 0.0260785237101 0.000634872823372
0.0606028372348 0.0263287349037 0.000640012103764
0.0607450947855 0.0263588704436 0.000640626168213
0.0608873523176 0.0267642273464 0.000648944643012
0.0610296098312 0.027280226446 0.000659530163155
0.0611718673262 0.0266657509258 0.000646913316305
0.0613141248025 0.0278108320855 0.000670409459796
0.0614563822602 0.0286287971851 0.00068717791081
0.0615986396992 0.0293216884971 0.000701373002552
0.0617408971194 0.029740379582 0.00070994651217
0.0618831545208 0.0311116510927 0.00073800797195
0.0620254119033 0.0312130380318 0.000740080498777
0.062167669267 0.0320167623943 0.000756513416933
0.0623099266117 0.0323586758482 0.000763500892414
0.0624521839374 0.0326621050598 0.000769700517975
0.0625944412441 0.0331525882962 0.000779722065837
0.0627366985318 0.033614208351 0.00078915125044
0.0628789558003 0.0336621228003 0.000790130348958
0.0630212130497 0.0330269419474 0.000777157095404
0.0631634702798 0.0334938814758 0.000786694014076
0.0633057274908 0.0322199179801 0.000760662487588
0.0634479846824 0.0312442073625 0.000740710396378
0.0635902418548 0.0326881934841 0.000770227146798
0.0637324990077 0.0305002292317 0.000725484462992
0.0638747561413 0.0303124913143 0.000721642815591
0.0640170132553 0.0285132257476 0.000684792593093
0.0641592703499 0.0276953083613 0.000668022792906
0.064301527425 0.0260355481733 0.000633951661245
0.0644437844804 0.02521325763 0.000617048096816
0.0645860415162 0.0237275512788 0.000586463199688
0.0647282985324 0.0208227384899 0.000526475265955
0.0648705555288 0.0200345590316 0.000510142788082
0.0650128125055 0.0194580429061 0.000498178391211
0.0651550694623 0.0178710450426 0.000465167725405
0.0652973263994 0.0164091209668 0.000434631446087
0.0654395833165 0.0151251865118 0.000407689824026
0.0655818402137 0.013504514936 0.000373478788083
0.0657240970909 0.0123602051432 0.000349150745479
0.0658663539481 0.0114180569066 0.00032898728183
0.0660086107852 0.00976395018593 0.000293224378719
0.0661508676022 0.00859089649485 0.000267491303715
0.0662931243991 0.00799510643924 0.000254266260433
0.0664353811758 0.00691783393344 0.000230032078546
0.0665776379322 0.0061051405939 0.000211392673225
0.0667198946684 0.00536460520876 0.000194058120895
0.0668621513842 0.00458558558121 0.000175350847525
0.0670044080797 0.00446059131581 0.000172293441517
0.0671466647547 0.00409005324717 0.000163128240992
0.0672889214093 0.00427272616263 0.000167670262434
0.0674311780434 0.00385408279105 0.00015720144294
0.067573434657 0.00396940828242 0.000160111562057
0.06771569125 0.00387418375413 0.000157696412583
0.0678579478223 0.00412531740706 0.000163984339039
0.068000204374 0.00477091454416 0.000179817684758
0.068142460905 0.00512306933303 0.000188267961934
0.0682847174152 0.00513342995161 0.000188505703734
0.0684269739046 0.00599981844376 0.000208888013062
0.0685692303732 0.00628894330028 0.000215573368278
0.0687114868209 0.00671276300501 0.000225290730517
0.0688537432476 0.00733862498214 0.000239481397909
0.0689959996534 0.00829620679175 0.000260889329009
0.0691382560381 0.00907579898035 0.000278093912132
0.0692805124018 0.0093118012454 0.000283266977331
0.0694227687444 0.00995669858562 0.000297337591505
0.0695650250659 0.0102504669754 0.000303714633412
0.0697072813661 0.010876201717 0.000317243010654
0.0698495376452 0.0116799260794 0.000334518068288
0.0699917939029 0.0120458921848 0.00034234882135
0.0701340501393 0.0120077737452 0.000341531210802
0.0702763063544 0.0122436169656 0.000346569520403
0.070418562548 0.0127969551855 0.000358362091804
0.0705608187202 0.0133791565872 0.000370728553899
0.0707030748709 0.0127683464753 0.000357751582074
0.0708453310001 0.0135862002436 0.000375115966129
0.0709875871077 0.0125615572904 0.00035334769695
0.0711298431937 0.0124268624421 0.00035047646181
0.071272099258 0.0126000415328 0.000354167612294
0.0714143553005 0.0128357575173 0.000359185453331
0.0715566113214 0.0126193154629 0.00035457795643
0.0716988673204 0.0121767784846 0.00034513859138
0.0718411232976 0.0116187887792 0.00033319722663
0.0719833792529 0.011113714907 0.00032234655476
0.0721256351863 0.0104453136196 0.00030791700611
0.0722678910977 0.0100946379468 0.000300309077116
0.0724101469871 0.00946014098638 0.000286478544117
0.0725524028544 0.00901325470745 0.000276677476426
0.0726946586997 0.0084845894134 0.000265012535772
0.0728369145228 0.00792675875275 0.000252612531023
0.0729791703237 0.00733044384969 0.000239233186665
0.0731214261024 0.00697465546143 0.000231179686582
0.0732636818588 0.00616186669498 0.000212551189722
0.0734059375928 0.0054259271297 0.000195343087711
0.0735481933046 0.00490634214425 0.000182947820649
0.0736904489939 0.00430497814377 0.000168278915525
0.0738327046608 0.00377096156744 0.000154887084731
0.0739749603052 0.0031118712034 0.000137729075728
0.074117215927 0.00287639378606 0.000131378048138
0.0742594715263 0.00239557932354 0.000117949608677
0.0744017271029 0.00179450160358 9.99606829337e-005
0.0745439826569 0.00151091888316 9.07989413855e-005
0.0746862381882 0.0012753539911 8.27212092024e-005
0.0748284936967 0.000957922609444 7.08965039332e-005
0.0749707491824 0.00085215456082 6.66266675993e-005
0.0751130046453 0.000563586360919 5.37028534249e-005
0.0752552600854 0.000453007781979 4.80197001632e-005
0.0753975155025 0.000361719037696 4.28469778357e-005
0.0755397708966 0.000332967187249 4.10957568984e-005
0.0756820262677 0.00029940480649 3.89641859033e-005
0.0758242816158 0.000362053031641 4.28478499669e-005
0.0759665369407 0.000487333577547 4.9809626315e-005
0.0761087922425 0.000497256823211 5.03114734749e-005
0.0762510475212 0.000733274992764 6.15110154001e-005
0.0763933027766 0.000887514147225 6.80152262064e-005
0.0765355580087 0.000988837468377 7.20386232226e-005
0.0766778132176 0.00120024632976 7.99785177271e-005
0.076820068403 0.00138760253971 8.65843802328e-005
0.0769623235651 0.00195499064312 0.000104886240956
0.0771045787037 0.00223374692877 0.000113223684818
0.0772468338188 0.00233466468598 0.000116162077429
0.0773890889105 0.00247902830831 0.000120296777848
0.0775313439785 0.00288316056663 0.00013152600559
0.0776735990229 0.0029505557042 0.000133354536718
0.0778158540436 0.0033883616746 0.000144987136093
0.0779581090407 0.00357167076919 0.000149736440329
0.078100364014 0.00404842221179 0.000161844906328
0.0782426189635 0.00407779433671 0.000162572883585
0.0783848738892 0.00450644047618 0.000173177243216
0.078527128791 0.00449212021647 0.000172824665805
0.0786693836689 0.00463614984477 0.000176348787606
0.0788116385228 0.0049341164426 0.000183566951163
0.0789538933527 0.00512625137396 0.000188177922505
0.0790961481585 0.0051403966844 0.000188519525974
0.0792384029403 0.00522703394317 0.000190584683909
0.0793806576979 0.00567446097418 0.00020115714927
0.0795229124314 0.00521269777914 0.000190242066067
0.0796651671406 0.00552061943152 0.00019753777397
0.0798074218255 0.00546310777843 0.000196177976785
0.0799496764862 0.00526144721344 0.000191394047233
0.0800919311225 0.00495395498186 0.000184036303191
0.0802341857344 0.00491104191651 0.000182998325458
0.0803764403218 0.00473824453311 0.000178816019783
0.0805186948848 0.00461285265582 0.000175770428942
0.0806609494232 0.00445378706651 0.000171881781788
0.0808032039371 0.00442941632556 0.000171287357867
0.0809454584263 0.00418376119101 0.000165215411207
0.0810877128909 0.00437608697612 0.000169980273815
0.0812299673308 0.00404909815178 0.000161851664062
0.081372221746 0.00366438296384 0.000152099428158
0.0815144761364 0.00367413126021 0.000152347265387
0.0816567305019 0.00341448985996 0.00014563422852
0.0817989848425 0.00286629616439 0.000131022154274
0.0819412391583 0.00270775542279 0.000126659659518
0.0820834934491 0.00234236187842 0.000116323885498
0.0822257477148 0.0024002950001 0.000117987277921
0.0823680019556 0.0022079612628 0.000112400260976
0.0825102561712 0.00187119233309 0.000102242853196
0.0826525103617 0.00172684461524 9.77114143468e-005
0.082794764527 0.00142855992792 8.79139109396e-005
0.0829370186672 0.00128902274038 8.30848275681e-005
0.083079272782 0.00122161169831 8.0685082925e-005
0.0832215268715 0.00102431633825 7.33522726715e-005
0.0833637809357 0.00094728423561 7.03445225837e-005
0.0835060349745 0.000711504633199 6.04558276563e-005
0.0836482889879 0.000620056844148 5.62633027697e-005
0.0837905429757 0.000547867080745 5.27641274137e-005
0.0839327969381 0.000422761484085 4.61828245817e-005
0.0840750508749 0.000509319220479 5.08163902458e-005
0.084217304786 0.000465992638871 4.85468915965e-005
0.0843595586715 0.000379387189055 4.37080828178e-005
0.0845018125314 0.000413044996655 4.56427999137e-005
0.0846440663654 0.000432271213367 4.67168096298e-005
0.0847863201737 0.000408202657413 4.53707413285e-005
0.0849285739562 0.000417879383693 4.5913430299e-005
0.0850708277128 0.000302553892399 3.89712134746e-005
0.0852130814435 0.000471049688577 4.88042706622e-005
0.0853553351482 0.00044712427287 4.75098025045e-005
0.0854975888269 0.000572325296333 5.39528085869e-005
0.0856398424796 0.000587090881289 5.46560745118e-005
0.0857820961062 0.000750982905375 6.21571677426e-005
0.0859243497067 0.000804232732581 6.44346390047e-005
0.0860666032809 0.000847861499131 6.6253084989e-005
0.086208856829 0.000944111866138 7.01615667711e-005
0.0863511103508 0.00102563640953 7.3359143832e-005
0.0864933638463 0.00113602413475 7.75316802846e-005
0.0866356173155 0.00110690648142 7.64571373418e-005
0.0867778707583 0.00143857860038 8.82429962729e-005
0.0869201241746 0.00130875790029 8.37647284858e-005
0.0870623775644 0.00140503212412 8.70971790742e-005
0.0872046309278 0.00147244316616 8.93812696506e-005
0.0873468842646 0.00157833845058 9.28971936796e-005
0.0874891375747 0.00171788359034 9.74094446404e-005
0.0876313908582 0.00159763623741 9.35277975546e-005
0.087773644115 0.00173715752049 9.80220635113e-005
0.0879158973451 0.001689068122 9.64868137779e-005
0.0880581505484 0.00175643145062 9.86324136641e-005
0.0882004037249 0.00167006456799 9.58701438327e-005
0.0883426568745 0.00186751897282 0.000102101789438
0.0884849099972 0.0019206574687 0.000103737268421
0.088627163093 0.00181985899507 0.000100606406213
0.0887694161617 0.00196905700434 0.000105212180491
0.0889116692034 0.0017621246792 9.87906968933e-005
0.089053922218 0.00162735030852 9.4473924586e-005
0.0891961752055 0.00179082881624 9.96998453916e-005
0.0893384281659 0.00182442300597 0.000100755111996
0.089480681099 0.0015356162389 9.14730139806e-005
0.0896229340048 0.00157873606234 9.28997927986e-005
0.0897651868834 0.00166996118876 9.58694490044e-005
0.0899074397346 0.00158800722454 9.32129543207e-005
0.0900496925584 0.00145817062004 8.88960892081e-005
0.0901919453548 0.0015594621324 9.22666597848e-005
0.0903341981237 0.00130958493306 8.37696372596e-005
0.0904764508651 0.00126175000611 8.20716187054e-005
0.0906187035789 0.00121391507912 8.034933997e-005
0.0907609562652 0.00133398748278 8.46129265943e-005
0.0909032089238 0.00117023859898 7.8773710933e-005
0.0910454615547 0.00114599509381 7.78890274991e-005
0.0911877141578 0.00103516204335 7.37282935308e-005
0.0913299667332 0.000924631177967 6.93919819801e-005
0.0914722192808 0.000876939391432 6.7444471885e-005
0.0916144718005 0.000954321392528 7.05463468595e-005
0.0917567242923 0.000777221577954 1.68439092366e-005
0.0918989767561 0.000775634675602 1.68104379832e-005
0.092041229192 0.000755725663811 1.64076937036e-005
0.0921834815998 0.000737388409452 1.60367307935e-005
0.0923257339795 0.000699094598723 1.52617491874e-005
0.0924679863311 0.000680757344383 1.48906864251e-005
0.0926102386545 0.000657795602268 1.44368997159e-005
0.0927524909498 0.000641985645809 1.41170444646e-005
0.0928947432167 0.000632862326475 1.39326027109e-005
0.0930369954554 0.000626577220034 1.38056470882e-005
0.0931792476657 0.000625968539357 1.37936690507e-005
0.0933214998477 0.000619201987984 1.36567520294e-005
0.0934637520012 0.000628646923714 1.38481909176e-005
0.0936060041263 0.00064569249732 1.4193532819e-005
0.0937482562228 0.000657446487606 1.44316789556e-005
0.0938905082908 0.000680793855898 1.49045183089e-005
0.0940327603302 0.000702265117367 1.53393004653e-005
0.0941750123409 0.000725660590961 1.58129652644e-005
0.094317264323 0.00075227911986 1.63517866776e-005
0.0944595162763 0.000772211011653 1.67552323731e-005
0.0946017682008 0.000815137238242 1.76238459905e-005
0.0947440200966 0.000843391347432 1.81955183022e-005
0.0948862719634 0.000886991048274 1.90775055391e-005
0.0950285238014 0.000900332513559 1.93474353267e-005
0.0951707756104 0.000940973542336 2.01693566549e-005
0.0953130273904 0.000978607793732 2.09303239056e-005
0.0954552791414 0.00100354224514 2.14344504764e-005
0.0955975308633 0.00103920417911 2.2155441838e-005
0.0957397825561 0.00105807736234 2.25369692135e-005
0.0958820342198 0.00110469100905 2.34792062686e-005
0.0960242858542 0.00110690346112 2.35238106317e-005
0.0961665374594 0.00114346309949 2.42627510973e-005
0.0963087890352 0.00115770187727 2.45504645093e-005
0.0964510405818 0.00118852068825 2.51732405464e-005
0.0965932920989 0.00119454897187 2.52948258227e-005
0.0967355435867 0.00120081778197 2.54212779472e-005
0.0968777950449 0.00121285922841 2.56644209589e-005
0.0970200464737 0.00119820223168 2.53678911027e-005
0.0971622978729 0.00121774888916 2.57629682467e-005
0.0973045492425 0.00123099375195 2.60306564554e-005
0.0974468005825 0.00121652996023 2.57382552202e-005
0.0975890518927 0.00119653405867 2.53340199834e-005
0.0977313031733 0.00119775220386 2.5358489622e-005
0.0978735544241 0.00117265635645 2.48509085476e-005
0.0980158056451 0.00115232293402 2.44395801177e-005
0.0981580568362 0.00114584383882 2.4308325601e-005
0.0983003079974 0.0011282043133 2.39514369281e-005
0.0984425591286 0.00110147406119 2.3411084282e-005
0.0985848102299 0.00106800906668 2.27345347807e-005
0.0987270613012 0.0010480616623 2.23312806237e-005
0.0988693123423 0.00101748298598 2.17130316608e-005
0.0990115633534 0.000983048716893 2.10170447883e-005
0.0991538143343 0.000979923831538 2.09545057962e-005
0.099296065285 0.000926192167515 1.9868542194e-005
0.0994383162054 0.000912772747427 1.95978743842e-005
0.0995805670956 0.00086851782819 1.87035620428e-005
0.0997228179554 0.000854438095175 1.84183967411e-005
0.0998650687849 0.000830929722757 1.79424689214e-005
0.100007319584 0.000793085970032 1.71764311408e-005
0.100149570352 0.000762842855151 1.65640557062e-005
0.10029182109 0.000738452290921 1.60698829112e-005
0.100434071798 0.000719288908392 1.56812974749e-005
0.100576322475 0.000688051094782 1.50481704223e-005
0.100718573121 0.000672110767476 1.47246858017e-005
0.100860823737 0.000671371715871 1.47090380463e-005
0.101003074322 0.000649468682266 1.42658530275e-005
0.101145324876 0.000628335333532 1.38382164199e-005
0.101287575399 0.000616293887084 1.35947492845e-005
0.101429825891 0.000609592129289 1.34594703508e-005
0.101572076353 0.000603218764483 1.33306653992e-005
0.101714326784 0.000602561586587 1.33174920244e-005
0.101856577183 0.000586029658719 1.29826478671e-005
0.101998827552 0.000587200482351 1.30065209618e-005
0.102141077889 0.000589910675683 1.30615870581e-005
0.102283328196 0.000595474594485 1.31741826536e-005
0.102425578471 0.000605319885243 1.33735209174e-005
0.102567828715 0.000601262743438 1.32911752529e-005
0.102710078928 0.000615052669026 1.35704262924e-005
0.102852329109 0.000625370668709 1.37791342273e-005
0.102994579259 0.000643280962156 1.41414506915e-005
0.103136829378 0.000659267043461 1.44647734777e-005
0.103279079466 0.000670490699748 1.46916348378e-005
0.103421329522 0.00067704814162 1.4823999574e-005
0.103563579546 0.000699578503475 1.528072903e-005
0.103705829539 0.000709072328252 1.54734399225e-005
0.1038480795 0.000712889727309 1.55512187102e-005
0.10399032943 0.000736430300609 1.60282513927e-005
0.104132579328 0.000756875054425 1.64420626487e-005
0.104274829194 0.000760273450856 1.6510371258e-005
0.104417079029 0.000778103438149 1.68707727241e-005
0.104559328831 0.000780491623161 1.69186616638e-005
0.104701578602 0.000802218139937 1.73579284057e-005
0.104843828341 0.000804383662292 1.74020714172e-005
0.104986078048 0.000818334983896 1.76847062247e-005
0.105128327723 0.000814727869941 1.76120419866e-005
0.105270577366 0.000821174764325 1.77428189644e-005
0.105412826977 0.000819450533842 1.77077216343e-005
0.105555076556 0.000834858567803 1.80187613629e-005
0.105697326102 0.000828811636594 1.78957104202e-005
0.105839575617 0.000830990712147 1.79391334815e-005
0.105981825099 0.000835190210376 1.80234704137e-005
0.106124074549 0.000831583488237 1.79509382759e-005
0.106266323967 0.000822588972199 1.77693962055e-005
0.106408573352 0.000804262027418 1.73990130018e-005
0.106550822705 0.000809795312941 1.75114955234e-005
0.106693072025 0.000795612200872 1.72244454213e-005
0.106835321313 0.000776432913868 1.68357012012e-005
0.106977570568 0.000771540901808 1.67361125259e-005
0.107119819791 0.000741730342776 1.61320857387e-005
0.107262068981 0.000740109491245 1.60987129788e-005
0.107404318139 0.000714197421149 1.55743438136e-005
0.107546567263 0.00068987282607 1.50820582526e-005
0.107688816355 0.000672090552212 1.47222259602e-005
0.107831065415 0.000647717851867 1.42288579059e-005
0.107973314441 0.000633238939427 1.39359279252e-005
0.108115563434 0.00061989864976 1.36661083491e-005
0.108257812395 0.000591549505593 1.30921179174e-005
0.108400061322 0.000558437936459 1.24214539594e-005
0.108542310217 0.000534610690823 1.19388762537e-005
0.108684559078 0.000516842753965 1.15778189073e-005
0.108826807906 0.000504173979192 1.13201088636e-005
0.108969056702 0.000477362245319 1.07752281844e-005
0.109111305464 0.000455601568227 1.03326145112e-005
0.109253554192 0.00044751987727 1.01684335988e-005
0.109395802888 0.000429401258129 9.80098941094e-006
0.10953805155 0.000411282639019 9.43344552485e-006
0.109680300179 0.000389556122216 8.99239159246e-006
0.109822548774 0.00037735445543 8.74500248208e-006
0.109964797336 0.00037023408687 8.59939201257e-006
0.110107045864 0.000350750655425 8.20188704819e-006
0.110249294359 0.00033795386107 7.94034860581e-006
0.11039154282 0.000339829184097 7.97788283894e-006
0.110533791248 0.000333678873799 7.85166328084e-006
0.110676039642 0.000325419882434 7.68226573395e-006
0.110818288002 0.000319469945587 7.55992511082e-006
0.110960536329 0.000323429701125 7.63991272791e-006
0.111102784622 0.000323444821792 7.63938816293e-006
0.11124503288 0.000330468587886 7.78313221972e-006
0.111387281105 0.000333836350965 7.85222005578e-006
0.111529529296 0.000333115163304 7.83786953545e-006
0.111671777454 0.000334173871862 7.85984013049e-006
0.111814025577 0.000349696372119 8.1768739229e-006
0.111956273666 0.000363663598189 8.46206804471e-006
0.11209852172 0.00037209871444 8.63442701505e-006
0.112240769741 0.000385969729943 8.91735950469e-006
0.112383017728 0.000387044734875 8.93978515298e-006
0.11252526568 0.000399311978991 9.1896799877e-006
0.112667513598 0.00041547575266 9.51868825447e-006
0.112809761482 0.000432409211186 9.86316947448e-006
0.112952009331 0.000444051086399 1.00999955678e-005
0.113094257146 0.000458915233181 1.04016093806e-005
0.113236504927 0.000472094910597 1.06684006997e-005
0.113378752673 0.000495039964478 1.11334109802e-005
0.113521000384 0.00050393826986 1.13132654396e-005
0.113663248061 0.000512211206268 1.14804455014e-005
0.113805495703 0.000522874679046 1.1696907859e-005
0.113947743311 0.000548258374533 1.22119193384e-005
0.114089990884 0.000552571947328 1.22994824959e-005
0.114232238422 0.000561599839815 1.24826404989e-005
0.114374485925 0.000569793645809 1.26487095483e-005
0.114516733394 0.000585090740286 1.29586233643e-005
0.114658980827 0.000585042243106 1.29574191853e-005
0.114801228226 0.000603610498162 1.33336032933e-005
0.11494347559 0.000595047362334 1.31598150135e-005
0.115085722918 0.000611853584989 1.35011955838e-005
0.115227970212 0.000616056218309 1.35871163756e-005
0.115370217471 0.000606789366842 1.34001066916e-005
0.115512464694 0.000619169901754 1.36517885154e-005
0.115654711882 0.000618888830406 1.36457817389e-005
0.115796959035 0.000614557001947 1.35566238768e-005
0.115939206153 0.000615516756742 1.35747874151e-005
0.116081453235 0.000602862710728 1.33171002824e-005
0.116223700282 0.000594441931304 1.31452616844e-005
0.116365947294 0.000599991513063 1.32584876453e-005
0.11650819427 0.000598421510028 1.32274170526e-005
0.116650441211 0.000576887806304 1.27916629914e-005
0.116792688116 0.000571228852606 1.26778033217e-005
0.116934934986 0.000551779189525 1.22839841413e-005
0.11707718182 0.000540138098073 1.20481175305e-005
0.117219428618 0.000536674908137 1.19781098893e-005
0.11736167538 0.000523350131105 1.17080549682e-005
0.117503922107 0.000512334408628 1.14848103343e-005
0.117646168798 0.000491327511994 1.1057868962e-005
0.117788415454 0.000469599035789 1.06160747824e-005
0.117930662073 0.000462638887566 1.04740806258e-005
0.118072908656 0.000459382847642 1.04073185449e-005
0.118215155204 0.000438833539123 9.98952045527e-006
0.118357401715 0.00042249403246 9.65752133291e-006
0.118499648191 0.000415054006852 9.50641238591e-006
0.11864189463 0.000401312186565 9.2270668516e-006
0.118784141033 0.000383962468564 8.87416232149e-006
0.1189263874 0.00036836083778 8.55687033658e-006
0.119068633731 0.000360600371396 8.3992119094e-006
0.119210880025 0.000348895270186 8.16112043543e-006
0.119353126283 0.0003356989046 7.89251859356e-006
0.119495372505 0.000329244841794 7.76091914765e-006
0.11963761869 0.000312070856771 7.40995352125e-006
0.119779864839 0.000308558777776 7.33782340103e-006
0.119922110952 0.000305383435892 7.27255507777e-006
0.120064357028 0.000292490822796 7.00857625659e-006
0.120206603067 0.000292682852149 7.0120883353e-006
0.12034884907 0.000276086130754 6.6719444372e-006
0.120491095036 0.00028416742977 6.83700738477e-006
0.120633340965 0.000273776292432 6.62377145946e-006
0.120775586858 0.000275571701245 6.65997175271e-006
0.120917832714 0.000274544801673 6.63818977516e-006
0.121060078533 0.000281022329345 6.77018990898e-006
0.121202324315 0.000280380272155 6.75634766221e-006
0.12134457006 0.000278246950554 6.71196252855e-006
0.121486815768 0.000276435245382 6.67511156085e-006
0.121629061439 0.000285302917476 6.85706279261e-006
0.121771307074 0.000291813429732 6.99062976113e-006
0.121913552671 0.000297313730636 7.10345616601e-006
0.122055798231 0.000304593927737 7.25262085808e-006
0.122198043753 0.000311489282406 7.39383160737e-006
0.122340289239 0.000319587269656 7.55953807132e-006
0.122482534687 0.000320565672076 7.57977523869e-006
0.122624780098 0.00032991439722 7.77091071841e-006
0.122767025472 0.000334420391217 7.86299731817e-006
0.122909270808 0.000348980393538 8.16012879327e-006
0.123051516107 0.000354207967089 8.2668303216e-006
0.123193761368 0.000361407858065 8.41370078179e-006
0.123336006592 0.000368535787008 8.55921501277e-006
0.123478251778 0.000369386169847 8.57697459582e-006
0.123620496927 0.000383657932228 8.86805273926e-006
0.123762742037 0.000386865474947 8.93378220579e-006
0.123904987111 0.000398154708579 9.16396310251e-006
0.124047232146 0.000403446291904 9.27162059848e-006
0.124189477144 0.000406476925992 9.33327083801e-006
0.124331722104 0.000407727663869 9.35871210079e-006
0.124473967026 0.000411912825226 9.44383541769e-006
0.12461621191 0.000416779413067 9.54275488553e-006
0.124758456756 0.000423145217538 9.67209432525e-006
0.124900701564 0.000419072171262 9.58917807205e-006
0.125042946334 0.000425389870421 9.71753493921e-006
0.125185191066 0.000428243987763 9.77546269459e-006
0.12532743576 0.000420819474767 9.62431004069e-006
0.125469680416 0.000422775495841 9.66388481288e-006
0.125611925033 0.000415832035856 9.52248697375e-006
0.125754169612 0.000413121842526 9.46716595343e-006
0.125896414153 0.00042067398322 9.62045648008e-006
0.126038658656 0.000403612113282 9.27297525138e-006
0.12618090312 0.000411901737991 9.44122216025e-006
0.126323147545 0.000406721877851 9.33543684149e-006
0.126465391933 0.000390381587407 9.00245524165e-006
0.126607636281 0.000388602474913 8.96683891929e-006
0.126749880591 0.000389180522289 8.97923072752e-006
0.126892124863 0.000387834357573 8.95246735096e-006
0.127034369096 0.000371431233056 8.61912781916e-006
0.12717661329 0.000359051873908 8.36664798771e-006
0.127318857445 0.000352428070985 8.23040590202e-006
0.127461101562 0.000345659952111 8.09120031771e-006
0.12760334564 0.000327923824119 7.72806848261e-006
0.127745589679 0.000324667392275 7.6604377555e-006
0.127887833679 0.000317196733263 7.50926364739e-006
0.12803007764 0.000303953437951 7.24017855093e-006
0.128172321562 0.000293836987391 7.03504963977e-006
0.128314565445 0.000289445067938 6.94711649745e-006
0.128456809289 0.000277322923559 6.69953664656e-006
0.128599053094 0.000272383198105 6.59733293374e-006
0.128741296859 0.000260275782479 6.34810249568e-006
0.128883540586 0.000250862263789 6.15385152883e-006
0.129025784273 0.000248279698089 6.09976676329e-006
0.129168027921 0.000239812772909 5.92522611061e-006
0.129310271529 0.00022749742348 5.67121078377e-006
0.129452515098 0.000230768192198 5.73808930252e-006
0.129594758628 0.000222541793495 5.56805730278e-006
0.129737002118 0.000212799881836 5.36615888295e-006
0.129879245569 0.000207026461754 5.24567493126e-006
0.13002148898 0.000207891573453 5.26246780568e-006
0.130163732351 0.00020558173513 5.21362770273e-006
0.130305975683 0.000202694633145 5.15284818151e-006
0.130448218975 0.000193603906457 4.96590004841e-006
0.130590462228 0.00019139223813 4.92165889803e-006
0.130732705441 0.000188603306209 4.86556300899e-006
0.130874948613 0.000194521434165 4.99017129777e-006
0.131017191746 0.000196967244308 5.04160649574e-006
0.131159434839 0.000197768738115 5.05782020782e-006
0.131301677892 0.000193278648587 4.96442722333e-006
0.131443920906 0.000196485407525 5.03049096303e-006
0.131586163879 0.000197960375546 5.06066840038e-006
0.131728406812 0.000198248615508 5.06605491729e-006
0.131870649704 0.00020657044105 5.23770639105e-006
0.132012892557 0.000209023419618 5.28788334388e-006
0.13215513537 0.000211716924687 5.34302906832e-006
0.132297378142 0.000215573301138 5.4226101835e-006
0.132439620874 0.000221843286867 5.55236434435e-006
0.132581863565 0.000222244425643 5.56098041504e-006
0.132724106216 0.000233421152293 5.79166173363e-006
0.132866348827 0.000237959347141 5.8854162043e-006
0.133008591398 0.000239594927442 5.91907090712e-006
0.133150833927 0.000245463774403 6.03977537192e-006
0.133293076416 0.000255325361511 6.2424107341e-006
0.133435318865 0.000251140200154 6.1564419025e-006
0.133577561273 0.000256552242663 6.26782554416e-006
0.13371980364 0.000265307799667 6.44795753951e-006
0.133862045967 0.000265163875635 6.44544634112e-006
0.134004288253 0.000272428168273 6.59484060716e-006
0.134146530497 0.000274448982902 6.63669966273e-006
0.134288772702 0.000279723878034 6.74402575627e-006
0.134431014865 0.000276387923911 6.67495112283e-006
0.134573256987 0.000289359667471 6.93995336724e-006
0.134715499068 0.00028029918225 6.75371254393e-006
0.134857741108 0.000280940455626 6.76672385232e-006
0.134999983107 0.000289696012629 6.94645563227e-006
0.135142225065 0.000287675981782 6.90550686993e-006
0.135284466982 0.000289456269882 6.94237371035e-006
0.135426708858 0.000288783187544 6.9290202499e-006
0.135568950692 0.000283427202578 6.81906831465e-006
0.135711192485 0.000287836594103 6.90908233633e-006
0.135853434237 0.000291380090165 6.98135125407e-006
0.135995675947 0.000286697579411 6.88521280346e-006
0.136137917616 0.000277685591402 6.70031211983e-006
0.136280159244 0.000283826773839 6.82585427515e-006
0.136422400829 0.000283137003246 6.81144385381e-006
0.136564642374 0.000271912171293 6.58108800167e-006
0.136706883877 0.000274878403706 6.64163140043e-006
0.136849125338 0.000263189598797 6.40267640111e-006
0.136991366757 0.000261266170419 6.36406933055e-006
0.137133608135 0.000262469586759 6.38966967097e-006
0.137275849471 0.000256024259958 6.25832640729e-006
0.137418090765 0.000253194391233 6.20063754034e-006
0.137560332017 0.000244214604058 6.01598782018e-006
0.137702573227 0.000246106615349 6.05471874938e-006
0.137844814396 0.000232460613778 5.77386529371e-006
0.137987055522 0.000236421153087 5.8552219272e-006
0.138129296607 0.00022970270701 5.71723754343e-006
0.138271537649 0.000222070260187 5.56030161968e-006
0.138413778649 0.000215592340643 5.42703533271e-006
0.138556019607 0.000210798106712 5.32842520177e-006
0.138698260523 0.000207045501248 5.25029350116e-006
0.138840501397 0.000205007998456 5.20662433749e-006
0.138982742228 0.000197823228209 5.05641667935e-006
0.139124983017 0.000195160356403 4.99977500501e-006
0.139267223763 0.000187783164867 4.84527163426e-006
0.139409464467 0.000183470375794 4.75657650454e-006
0.139551705129 0.00018444917007 4.7778925741e-006
0.139693945748 0.000177442484077 4.63319778898e-006
0.139836186325 0.000171061167048 4.50137408137e-006
0.139978426859 0.000170933147522 4.49916507767e-006
0.14012066735 0.000169217261095 4.46317772461e-006
0.140262907799 0.00017312969511 4.54451252068e-006
0.140405148205 0.000163139696564 4.3358827745e-006
0.140547388568 0.000164598760119 4.36614645683e-006
0.140689628888 0.000163540443455 4.34403880169e-006
0.140831869166 0.000163107495728 4.33499264039e-006
0.1409741094 0.000162145389669 4.31488559895e-006
0.141116349592 0.000162770758607 4.32795587836e-006
0.141258589741 0.000164382482181 4.36194592859e-006
0.141400829847 0.000163468873288 4.34350588682e-006
0.141543069909 0.000167029057584 4.41847655076e-006
0.141685309929 0.00016630786993 4.40408490888e-006
0.141827549905 0.000166885525472 4.41680085837e-006
0.141969789838 0.000167430588287 4.42795190402e-006
0.142112029728 0.000164800701102 4.37286490001e-006
0.142254269574 0.000170396820719 4.48936269292e-006
0.142396509378 0.00017483841306 4.58166025221e-006
0.142538749137 0.000173531225776 4.55390440624e-006
0.142680988854 0.000175519055817 4.59443606645e-006
0.142823228527 0.000174139514629 4.56487293762e-006
0.142965468156 0.000179013662809 4.66553081111e-006
0.143107707742 0.000184176442786 4.77211422974e-006
0.143249947285 0.000185667707177 4.80310101875e-006
0.143392186783 0.000192065712473 4.93592229969e-006
0.143534426238 0.000193124029137 4.95787437276e-006
0.14367666565 0.000195577399588 5.00874404244e-006
0.143818905017 0.000196258826072 5.02277224854e-006
0.143961144341 0.000191656621467 4.92714227126e-006
0.144103383621 0.000193308106244 4.96120877331e-006
0.144245622857 0.00019731675086 5.04412998932e-006
0.144387862049 0.000201565921987 5.13197077681e-006
0.144530101197 0.000201871241997 5.13916695502e-006
0.144672340301 0.000203812142332 5.18023779652e-006
0.144814579361 0.000206282201024 5.23225170882e-006
0.144956818376 0.000210339734738 5.31705477334e-006
0.145099057348 0.000209762863003 5.30570223307e-006
0.145241296276 0.000204792112316 5.20314557194e-006
0.145383535159 0.00020670041996 5.24277830593e-006
0.145525773998 0.000206973147307 5.24859723451e-006
0.145668012792 0.000202435344363 5.15495979695e-006
0.145810251543 0.00020796706235 5.26876233623e-006
0.145952490248 0.000199884979583 5.10105396149e-006
0.14609472891 0.000200125114214 5.10546733187e-006
0.146236967527 0.000196468719289 5.0291969168e-006
0.146379206099 0.000200973929553 5.12148432638e-006
0.146521444627 0.000195072098045 4.99778596379e-006
0.14666368311 0.000197251957402 5.04162862332e-006
0.146805921548 0.000196160656121 5.01774197351e-006
0.146948159942 0.000188430822996 4.85607906215e-006
0.147090398291 0.000187485013274 4.83679739147e-006
0.147232636595 0.000184133938413 4.76751256789e-006
0.147374874854 0.000182947602195 4.74323826107e-006
0.147517113069 0.000185946427347 4.80601022046e-006
0.147659351238 0.00017586856232 4.59658174037e-006
0.147801589362 0.000166856966186 4.40875922234e-006
0.147943827442 0.000170208432917 4.47895764227e-006
0.148086065476 0.000168556948147 4.44469708173e-006
0.148228303466 0.00016690546338 4.410424832e-006
0.14837054141 0.000156980650194 4.20422353227e-006
0.148512779309 0.000156099634 4.18729903924e-006
0.148655017162 0.000158056830718 4.22988177891e-006
0.148797254971 0.000153952759295 4.14562955689e-006
0.148939492734 0.000149631234342 4.05487777868e-006
0.149081730451 0.000147978573976 4.01816224649e-006
0.149223968124 0.000145460018118 3.96327943753e-006
0.149366205751 0.00014457704252 3.94284858923e-006
0.149508443332 0.000138113851735 3.80475192159e-006
0.149650680868 0.000143998995034 3.9293940775e-006
0.149792918358 0.000138098339116 3.80540078138e-006
0.149935155802 0.000133640842297 3.71165724813e-006
0.150077393201 0.000129231450792 3.61875536078e-006
0.150219630554 0.000128350042724 3.60106212591e-006
0.150361867862 0.000127051983266 3.57503429184e-006
0.150504105124 0.000132200034436 3.68567835737e-006
0.150646342339 0.000132681871249 3.69745856954e-006
0.150788579509 0.000124745280074 3.53103420101e-006
0.150930816633 0.000127887245544 3.59565446944e-006
0.151073053711 0.000125593311742 3.54505638466e-006
0.151215290743 0.000125752748355 3.54658548503e-006
0.151357527729 0.00012668186978 3.56455724625e-006
0.151499764669 0.000127002310495 3.57089723502e-006
0.151642001562 0.000126136806903 3.55328674984e-006
0.15178423841 0.00013037046544 3.64391846269e-006
0.151926475211 0.000124934958097 3.52936783543e-006
0.152068711966 0.000130178828028 3.64147142865e-006
0.152210948675 0.000127997401205 3.59379705548e-006
0.152353185337 0.000133031769801 3.69915313496e-006
0.152495421953 0.000132726449742 3.69141450546e-006
0.152637658522 0.000134104815261 3.71939413874e-006
0.152779895045 0.000130777597062 3.64899246171e-006
0.152922131521 0.000131740486843 3.67086550215e-006
0.153064367951 0.000135397273621 3.74978582185e-006
0.153206604334 0.000135494268011 3.75341714921e-006
0.153348840671 0.000137034421521 3.78759702222e-006
0.15349107696 0.000139054844245 3.83022374365e-006
0.153633313203 0.0001431919003 3.91738598562e-006
0.1537755494 0.000143336216209 3.92042369245e-006
0.153917785549 0.000141219582879 3.87585171952e-006
0.154060021651 0.000141051018394 3.87191608768e-006
0.154202257707 0.000141291153048 3.87621984643e-006
0.154344493716 0.000146534239195 3.98586363591e-006
0.154486729677 0.000146293320788 3.98009094446e-006
0.154628965592 0.000146389139486 3.9814159964e-006
0.154771201459 0.000148457275661 4.02416039908e-006
0.154913437279 0.000150910254244 4.07499177562e-006
0.155055673052 0.00014475238358 3.94474772553e-006
0.155197908778 0.000152400734852 4.10493653465e-006
0.155340144457 0.000149610627247 4.04630402854e-006
0.155482380088 0.000148119754717 4.01563082051e-006
0.155624615672 0.000150140569318 4.05881970706e-006
0.155766851208 0.000150718224846 4.07167506301e-006
0.155909086697 0.000152642828872 4.11282026837e-006
0.156051322139 0.000148425858547 4.02470867784e-006
0.156193557533 0.000148971313226 4.03663854187e-006
0.156335792879 0.000147255818676 4.00105807489e-006
0.156478028178 0.000150543275646 4.07060376787e-006
0.156620263429 0.000141107075891 3.87295699536e-006
0.156762498632 0.0001477141906 4.01312880062e-006
0.156904733788 0.000145229403073 3.96209766597e-006
0.157046968896 0.000137741664065 3.8057163884e-006
0.157189203956 0.000140452249313 3.86411878908e-006
0.157331438968 0.000137902276403 3.80964140187e-006
0.157473673932 0.0001373246209 3.79670335169e-006
0.157615908848 0.0001370837025 3.79087220768e-006
0.157758143717 0.000133042465151 3.70478458072e-006
0.157900378537 0.000134557586238 3.73643178183e-006
0.158042613309 0.000126524000643 3.56636241495e-006
0.158184848033 0.000124647893828 3.52653947545e-006
0.158327082709 0.000129650845336 3.63264211487e-006
0.158469317336 0.000127870949126 3.59492748146e-006
0.158611551915 0.000124342573822 3.51861828345e-006
0.158753786446 0.000119371039402 3.41138253415e-006
0.158896020929 0.000118344139799 3.38808628748e-006
0.159038255363 0.000116114607594 3.33909624329e-006
0.159180489749 0.00011255481512 3.26286492326e-006
0.159322724086 0.000117959297253 3.37987013106e-006
0.159464958375 0.000113502192305 3.28599175368e-006
0.159607192615 0.000108419718446 3.17851400289e-006
0.159749426806 0.000108676933243 3.18562574307e-006
0.159891660949 0.000109413633568 3.19914471414e-006
0.160033895043 0.000107360226283 3.15282221159e-006
0.160176129089 0.000106653767443 3.13552234862e-006
0.160318363085 0.000109266574469 3.18981763073e-006
0.160460597033 0.000104592407762 3.0891932839e-006
0.160602830932 0.000106918542364 3.14161425224e-006
0.160745064782 0.000102461829293 3.04790316661e-006
0.160887298583 0.000103777752621 3.07890492456e-006
0.161029532335 0.000103361885086 3.07268620783e-006
0.161171766038 0.000102414899808 3.04989401898e-006
0.161313999691 0.000102285704641 3.0448350622e-006
0.161456233296 0.00010076145565 3.00970112909e-006
0.161598466852 0.000100391733893 2.99961690209e-006
0.161740700358 0.000103365918509 3.06330035952e-006
0.161882933815 0.000101746634549 3.028886454e-006
0.162025167223 0.000100704614236 3.0069530445e-006
0.162167400581 0.000104954177259 3.09944132878e-006
0.16230963389 0.00010410457818 3.0817449319e-006
0.162451867149 0.00010373564024 3.07346607896e-006
0.162594100359 0.000106156809867 3.12538541791e-006
0.16273633352 0.000106413240854 3.13060770639e-006
0.162878566631 0.000105034091536 3.10056917705e-006
0.163020799692 0.000105210608251 3.10466479699e-006
0.163163032704 0.000106942791017 3.14288212769e-006
0.163305265666 0.000108242026073 3.17173793179e-006
0.163447498578 0.000111465473265 3.24186272696e-006
0.16358973144 0.000107954178058 3.16740403462e-006
0.163731964253 0.000108899987782 3.187114894e-006
0.163874197016 0.000106237899773 3.12924669797e-006
0.164016429728 0.000109011710988 3.18831689333e-006
0.164158662391 0.000109668888861 3.20185278106e-006
0.164300895004 0.000108289347691 3.17084891171e-006
0.164443127567 0.000110645723818 3.21953122426e-006
0.164585360079 0.000110356308248 3.21149439629e-006
0.164727592542 0.000112568368399 3.25738975901e-006
0.164869824954 0.000112471373973 3.25382378022e-006
0.165012057316 0.000116031950094 3.33169094646e-006
0.165154289628 0.000113579363378 3.2807227825e-006
0.16529652189 0.00011314719942 3.2732337522e-006
0.165438754101 0.000111849140043 3.24733305846e-006
0.165580986262 0.000113068069017 3.27419944831e-006
0.165723218372 0.000110598402225 3.22061605503e-006
0.165865450432 0.000103991679367 3.07773282446e-006
0.166007682441 0.000114991497383 3.31366250844e-006
0.1661499144 0.000111511619196 3.23848365645e-006
0.166292146308 0.000116418360098 3.34365092414e-006
0.166434378166 0.00011045330253 3.21574998003e-006
0.166576609973 0.000110597618439 3.2188511238e-006
0.166718841729 0.00011093435556 3.22608577359e-006
0.166861073434 0.000106604878293 3.13292071962e-006
0.167003305089 0.000108240458594 3.16815476684e-006
0.167145536692 0.000109346880562 3.19196286791e-006
0.167287768245 0.000110260881319 3.21161457828e-006
0.167429999747 0.000100928452543 3.01025059997e-006
0.167572231197 0.000102836760178 3.05186590932e-006
0.167714462597 0.000104552646606 3.08925055307e-006
0.167856693946 9.97262118366e-005 2.9851369556e-006
0.167998925243 9.80266217657e-005 2.94857910573e-006
0.168141156489 9.96860588062e-005 2.98404337554e-006
0.168283387684 9.77773593102e-005 2.94122774609e-006
0.168425618828 9.80815037278e-005 2.94652854391e-006
0.168567849921 9.91072276671e-005 2.96758781223e-006
0.168710080962 9.49375788628e-005 2.8756034342e-006
0.168852311952 9.44410131988e-005 2.86595956703e-006
0.16899454289 9.57724490707e-005 2.89626861292e-006
0.169136773777 9.34959872429e-005 2.84795283016e-006
0.169279004612 9.10752095296e-005 2.79647555481e-006
0.169421235396 9.0081294545e-005 2.77547279025e-006
0.169563466128 9.8499722564e-005 2.95901557109e-006
0.169705696808 9.01775051509e-005 2.77758014473e-006
0.169847927437 8.86381354561e-005 2.74383337721e-006
0.169990158014 8.48859218247e-005 2.66130444507e-006
0.17013238854 8.70029470049e-005 2.70892688213e-006
0.170274619013 8.3443546453e-005 2.63157826561e-006
0.170416849435 8.04133042506e-005 2.56566713463e-006
0.170559079804 8.28189613011e-005 2.62000445216e-006
0.170701310122 8.52882362729e-005 2.6740089237e-006
0.170843540388 8.58007064073e-005 2.68340830166e-006
0.170985770601 8.56878075736e-005 2.67912794568e-006
0.171128000763 8.490143447e-005 2.66007310393e-006
0.171270230872 8.39226401247e-005 2.63680572869e-006
0.17141246093 8.39226401247e-005 2.63680572869e-006
0.171554690935 8.17579014913e-005 2.58888318404e-006
0.171696920888 8.29605340654e-005 2.61552499947e-006
0.171839150788 8.12287431586e-005 2.5771460537e-006
0.171981380636 7.97295265239e-005 2.54402455828e-006
0.172123610432 8.21669924935e-005 2.59849036774e-006
0.172265840175 8.20548774119e-005 2.59637178612e-006
0.172408069866 8.01147608234e-005 2.55370371077e-006
0.172550299505 8.4861281353e-005 2.65915113348e-006
0.17269252909 8.35461418388e-005 2.62935240985e-006
0.172834758624 8.47805833705e-005 2.65588963565e-006
0.172976988104 8.53415506485e-005 2.6675607766e-006
0.173119217532 8.61430444297e-005 2.6845521041e-006
0.173261446907 8.2254467109e-005 2.59841911178e-006
0.17340367623 8.26715103539e-005 2.6080198245e-006
0.173545905499 8.68407672363e-005 2.70046320289e-006
0.173688134716 8.00901203513e-005 2.55147661923e-006
0.173830363879 8.67608529997e-005 2.69942135357e-006
0.17397259299 8.72097052109e-005 2.70894191023e-006
0.174114822048 8.56862399948e-005 2.6750169312e-006
0.174257051053 8.47881437112e-005 2.6548383484e-006
0.174399280004 8.41305739364e-005 2.6399543307e-006
0.174541508903 8.44915596189e-005 2.6484125009e-006
0.174683737748 9.01524727453e-005 2.77431964645e-006
0.17482596654 8.6625273029e-005 2.69821524001e-006
0.174968195279 8.85820778745e-005 2.74266600279e-006
0.175110423965 8.77006698687e-005 2.7248229831e-006
0.175252652597 8.70431001118e-005 2.71002312376e-006
0.175394881176 8.59525826224e-005 2.68568401623e-006
0.175537109702 8.72192249722e-005 2.71319031827e-006
0.175679338174 8.51184961085e-005 2.66660678621e-006
0.175821566592 8.51662095549e-005 2.66644717858e-006
0.175963794957 8.42355206014e-005 2.64393361027e-006
0.176106023268 8.4266937677e-005 2.64279149585e-006
0.176248251526 8.71365675978e-005 2.70445522461e-006
0.17639047973 8.54361937068e-005 2.6654109552e-006
0.17653270788 8.17328690761e-005 2.58522661428e-006
0.176674935977 8.596691947e-005 2.68092568021e-006
0.176817164019 8.38029646065e-005 2.63535359242e-006
0.176959392008 8.16871150815e-005 2.59097768747e-006
0.177101619943 8.09818319399e-005 2.57627382288e-006
0.177243847824 8.41885908992e-005 2.64643093485e-006
0.177386075651 8.46052422744e-005 2.65490137251e-006
0.177528303424 8.45889459108e-005 2.65383504159e-006
0.177670531143 8.02431722683e-005 2.55693622576e-006
0.177812758807 7.93128751785e-005 2.53547620864e-006
0.177954986418 8.14132121637e-005 2.58137359544e-006
0.178097213974 7.95208089905e-005 2.53859196333e-006
0.178239441476 7.67144050488e-005 2.47526217695e-006
0.178381668924 7.74439368122e-005 2.49138767876e-006
0.178523896318 7.68988739977e-005 2.47958578489e-006
0.178666123657 7.52473892212e-005 2.44301180133e-006
0.178808350941 7.63860120228e-005 2.46889226815e-006
0.178950578171 7.42053689257e-005 2.42044104736e-006
0.179092805347 7.40447566837e-005 2.41600179084e-006
0.179235032468 7.26815118554e-005 2.38453221516e-006
0.179377259535 7.04042662585e-005 2.3323299973e-006
0.179519486547 7.40439729142e-005 2.41363952283e-006
0.179661713504 6.93539017721e-005 2.3082649324e-006
0.179803940406 7.00440642104e-005 2.32578727861e-006
0.179946167254 6.92910675899e-005 2.31076448393e-006
0.180088394047 6.57960687311e-005 2.23358438305e-006
0.180230620785 6.79774956529e-005 2.28548653405e-006
0.180372847468 7.08312211649e-005 2.34820832099e-006
0.180515074096 6.79604155994e-005 2.28157511326e-006
0.180657300669 6.40312933439e-005 2.19032158404e-006
0.180799527187 6.94827051422e-005 2.31288818022e-006
0.180941753651 6.85444557636e-005 2.29106027254e-006
0.181083980059 6.59308649215e-005 2.23198078615e-006
0.181226206411 6.59630657488e-005 2.23314037781e-006
0.181368432709 6.38305279486e-005 2.18480055885e-006
0.181510658951 6.41513606061e-005 2.19259853763e-006
0.181652885138 6.57714282696e-005 2.23122698569e-006
0.18179511127 6.710286414e-005 2.26317849096e-006
0.181937337346 6.35756644359e-005 2.18448560222e-006
0.182079563367 6.26942564196e-005 2.16614009466e-006
0.182221789333 6.49711101952e-005 2.21761913472e-006
0.182364015243 6.36233779983e-005 2.18400373387e-006
0.182506241097 6.2131329855e-005 2.14707696183e-006
0.182648466896 6.34774945497e-005 2.17551318075e-006
0.182790692639 6.14081826962e-005 2.12553642393e-006
0.182932918327 6.43748069949e-005 2.1942335569e-006
0.183075143958 6.27714275182e-005 2.15783489024e-006
0.183217369534 6.51607881937e-005 2.21309466162e-006
0.183359595054 6.66361481193e-005 2.24722569953e-006
0.183501820519 6.36214185316e-005 2.17771665829e-006
0.183644045927 6.26108153123e-005 2.15301109183e-006
0.18378627128 6.20812651043e-005 2.13944210441e-006
0.183928496576 6.46785595699e-005 2.197980241e-006
0.184070721817 6.44857464452e-005 2.19245492906e-006
0.184212947001 6.370054896e-005 2.17584287584e-006
0.184355172129 6.32039833175e-005 2.16604122864e-006
0.184497397201 6.11680480052e-005 2.12092387233e-006
0.184639622217 6.67808558896e-005 2.25162897244e-006
0.184781847177 6.40953030597e-005 2.19152638701e-006
0.18492407208 6.30210819123e-005 2.16732288721e-006
0.185066296928 6.17544395593e-005 2.13864163717e-006
0.185208521718 6.54426434183e-005 2.22361984812e-006
0.185350746453 5.95097866904e-005 2.0877370077e-006
0.18549297113 6.39195700779e-005 2.18967209739e-006
0.185635195752 6.76077739271e-005 2.27416876819e-006
0.185777420316 6.34067080966e-005 2.17879640534e-006
0.185919644825 6.3487014236e-005 2.18107799727e-006
0.186061869276 6.23885445241e-005 2.15565357353e-006
0.186204093671 6.19393004588e-005 2.14441976865e-006
0.186346318009 6.35585844082e-005 2.18070974476e-006
0.18648854229 6.12332335018e-005 2.12638798726e-006
0.186630766515 6.40551500001e-005 2.19039467159e-006
0.186772990683 6.47123279095e-005 2.20452445954e-006
0.186915214794 6.20502399015e-005 2.14250312309e-006
0.187057438847 6.17934170288e-005 2.13570060448e-006
0.187199662844 5.86021706627e-005 2.06090701092e-006
0.187341886784 6.25471973222e-005 2.15328357728e-006
0.187484110667 5.91006955598e-005 2.07688739013e-006
0.187626334493 5.91658809649e-005 2.08198246446e-006
0.187768558261 5.88462239982e-005 2.07847693549e-006
0.187910781973 5.87189882934e-005 2.07973415181e-006
0.188053005627 6.15087040187e-005 2.14251741879e-006
0.188195229224 5.57356757972e-005 2.00768089541e-006
0.188337452763 5.75632854246e-005 2.04877553712e-006
0.188479676245 5.75628935202e-005 2.0474092271e-006
0.18862189967 5.61113903077e-005 2.01247292206e-006
0.188764123037 5.47481454862e-005 1.97962775821e-006
0.188906346347 5.67041665565e-005 2.02438091e-006
0.189048569599 5.38977626203e-005 1.95774244219e-006
0.189190792794 5.20053594277e-005 1.91214403392e-006
0.189333015931 5.48109796389e-005 1.9760914647e-006
0.18947523901 5.53556505846e-005 1.98685538195e-006
0.189617462032 5.34469510537e-005 1.93999743586e-006
0.189759684995 5.25003575558e-005 1.91577946917e-006
0.189901907901 5.22677832334e-005 1.9100609607e-006
0.19004413075 5.12098584239e-005 1.88628507432e-006
0.19018635354 5.3086357115e-005 1.93230304574e-006
0.190328576272 5.04409573469e-005 1.87104077539e-006
0.190470798947 5.28947197122e-005 1.93094964279e-006
0.190613021563 5.02489280491e-005 1.86814809139e-006
0.190755244121 5.07780863817e-005 1.88075471116e-006
0.190897466621 4.8950084869e-005 1.83710138344e-006
0.191039689063 5.25579825915e-005 1.9229881606e-006
0.191181911447 5.05053590511e-005 1.87371812895e-006
0.191324133773 4.78913763529e-005 1.81002561002e-006
0.19146635604 4.92701337876e-005 1.84209706659e-006
0.191608578249 4.93981533322e-005 1.844158873e-006
0.1917508004 4.72652236245e-005 1.79182506011e-006
0.191893022492 4.88045933194e-005 1.82893711033e-006
0.192035244526 4.82273296837e-005 1.81504661069e-006
0.192177466501 4.97185940757e-005 1.85086739484e-006
0.192319688418 5.19795433151e-005 1.90479982419e-006
0.192461910276 4.86523251668e-005 1.8255268967e-006
0.192604132076 4.94061055318e-005 1.84413027569e-006
0.192746353816 4.68406199987e-005 1.78285740689e-006
0.192888575499 4.71133473472e-005 1.7899951277e-006
0.193030797122 4.61834421281e-005 1.76802954642e-006
0.193173018687 5.06576271494e-005 1.87702832341e-006
0.193315240192 4.92148599263e-005 1.84407376503e-006
0.193457461639 4.75315662076e-005 1.80526150448e-006
0.193599683027 4.99372232608e-005 1.86448628424e-006
0.193741904356 4.8478159724e-005 1.83020330631e-006
0.193884125626 4.80130111767e-005 1.81852493645e-006
0.194026346837 5.06266020128e-005 1.88042776077e-006
0.194168567989 4.72270299717e-005 1.79858068321e-006
0.194310789081 5.05622003387e-005 1.87789625443e-006
0.194453010115 4.85739784314e-005 1.83093472234e-006
0.194595231089 4.91353375878e-005 1.8448815709e-006
0.194737452004 4.89751172063e-005 1.84156917233e-006
0.194879672859 4.82857384989e-005 1.82559385622e-006
0.195021893655 4.77243793639e-005 1.81154902196e-006
0.195164114392 4.55111435722e-005 1.75644471337e-006
0.19530633507 4.87819122987e-005 1.83370529068e-006
0.195448555688 4.9454994645e-005 1.84831613378e-006
0.195590776246 4.79633383379e-005 1.8110500184e-006
0.195732996745 4.82841709726e-005 1.8192815689e-006
0.195875217184 5.03848998239e-005 1.87009911075e-006
0.196017437563 4.67129923261e-005 1.78244634034e-006
0.196159657883 4.97277219469e-005 1.85544333375e-006
0.196301878143 4.94871954455e-005 1.8496933471e-006
0.196444098343 4.8252362051e-005 1.81955911491e-006
0.196586318484 4.64883703172e-005 1.77647396472e-006
0.196728538564 4.6985327816e-005 1.78796852365e-006
0.196870758585 4.69050216726e-005 1.78550798168e-006
0.197012978545 4.5302034034e-005 1.74861176472e-006
0.197155198446 4.62967327819e-005 1.77482701199e-006
0.197297418286 4.62812201948e-005 1.77662016161e-006
0.197439638067 4.6458128846e-005 1.7831514208e-006
0.197581857787 4.80058426786e-005 1.82175965391e-006
0.197724077447 4.70278321367e-005 1.79881469865e-006
0.197866297047 4.60498216014e-005 1.7757971728e-006
0.198008516587 4.39653891047e-005 1.72585186493e-006
0.198150736066 4.60180126698e-005 1.77611228597e-006
0.198292955485 4.64664730379e-005 1.78463879095e-006
0.198435174843 4.55198795926e-005 1.7595589703e-006
0.198577394141 4.40922330908e-005 1.72268602965e-006
0.198719613379 4.52141676194e-005 1.7479253237e-006
0.198861832556 4.56228667205e-005 1.75711801136e-006
0.199004051672 4.25763281511e-005 1.68320582298e-006
0.199146270728 4.44846357938e-005 1.73050459576e-006
0.199288489723 4.35547305683e-005 1.70834421149e-006
0.199430708658 4.47895639829e-005 1.73904655743e-006
0.199572927531 4.46285598986e-005 1.73184539912e-006
0.199715146344 4.39865027509e-005 1.71314932624e-006
0.199857365096 4.4931920567e-005 1.73360855835e-006
0.199999583788 4.34720732012e-005 1.69538869552e-006
0.200141802418 4.30470776498e-005 1.68470716739e-006
0.200284020987 4.06744051765e-005 1.6277966889e-006
0.200426239496 4.25831046941e-005 1.6774327494e-006
0.200568457943 4.20384337881e-005 1.66642495475e-006
0.200710676329 4.13013416976e-005 1.65088574889e-006
0.200852894654 4.03388437939e-005 1.62504238542e-006
0.200995112918 3.99536095055e-005 1.61358229665e-006
0.20113733112 4.13482714059e-005 1.64662205721e-006
0.201279549262 3.96160885935e-005 1.60173313924e-006
0.201421767342 4.18368847323e-005 1.65691928025e-006
0.20156398536 4.00732848602e-005 1.61406624428e-006
0.201706203318 3.86464221221e-005 1.57940434283e-006
0.201848421214 4.08274571204e-005 1.6352604199e-006
0.201990639048 4.06994375901e-005 1.63333143419e-006
0.202132856821 4.10043657382e-005 1.64202018103e-006
0.202275074532 3.80381332986e-005 1.56895981425e-006
0.202417292182 4.12293796521e-005 1.64989835341e-006
0.202559509769 3.86960949669e-005 1.58796943881e-006
0.202701727296 4.2255887414e-005 1.67643529054e-006
0.20284394476 3.93532728988e-005 1.60319928286e-006
0.202986162163 4.04433985159e-005 1.62921404988e-006
0.203128379504 3.95131013948e-005 1.60484132452e-006
0.203270596783 3.92562785012e-005 1.59727319958e-006
0.203412814 3.79733398075e-005 1.56434784647e-006
0.203555031155 3.75562965603e-005 1.55317201311e-006
0.203697248248 3.93520972424e-005 1.5978646769e-006
0.203839465279 3.92236857991e-005 1.59405791317e-006
0.203981682248 3.88388433615e-005 1.58437806092e-006
0.204123899155 4.01217820586e-005 1.61714198548e-006
0.204266116 3.92399821292e-005 1.59564356928e-006
0.204408332782 4.03786049313e-005 1.6247340008e-006
0.204550549502 3.93043838041e-005 1.5984796831e-006
0.20469276616 4.08759543156e-005 1.63828887146e-006
0.204834982756 4.11486816538e-005 1.64563574417e-006
0.204977199289 3.78616165797e-005 1.56395890396e-006
0.205119415759 3.79900280232e-005 1.56781896512e-006
0.205261632168 3.85915402432e-005 1.58384976245e-006
0.205403848513 3.7597625218e-005 1.55999364515e-006
0.205546064796 3.80468692959e-005 1.57252601946e-006
0.205688281017 3.35893724851e-005 1.46014778807e-006
0.205830497175 3.67325135568e-005 1.54186442664e-006
0.20597271327 3.92979991004e-005 1.60573457952e-006
0.206114929302 3.70529543405e-005 1.54872512519e-006
0.206257145272 3.94260186584e-005 1.60774260973e-006
0.206399361179 3.90570807001e-005 1.59793576464e-006
0.206541577022 3.91290427214e-005 1.59881758024e-006
0.206683792803 3.73328501748e-005 1.55237128479e-006
0.206826008521 3.61139212497e-005 1.52015465169e-006
0.206968224176 3.72040468528e-005 1.54666805533e-006
0.207110439768 3.89676466834e-005 1.59002754047e-006
0.207252655297 3.84066793775e-005 1.57706232493e-006
0.207394870763 3.94812923867e-005 1.60520735894e-006
0.207537086166 3.71885342023e-005 1.54871802244e-006
0.207679301505 3.6579461636e-005 1.53454740818e-006
0.207821516781 3.79745154503e-005 1.56983084553e-006
0.207963731994 3.72366395691e-005 1.54993612372e-006
0.208105947143 3.69317114003e-005 1.54096596507e-006
0.208248162229 3.845478473e-005 1.57827369513e-006
0.208390377252 3.76206982004e-005 1.55605711444e-006
0.208532592211 3.85987087463e-005 1.58012658452e-006
0.208674807107 3.39483988383e-005 1.46066949781e-006
0.208817021939 3.42529351286e-005 1.46791782714e-006
0.208959236707 3.68184206511e-005 1.53320266249e-006
0.209101451412 3.66259994248e-005 1.52829626448e-006
0.209243666053 3.23287229779e-005 1.41773051576e-006
0.20938588063 3.60650321332e-005 1.51519750045e-006
0.209528095144 3.47502844842e-005 1.48206989185e-006
0.209670309594 3.42533269928e-005 1.46989945226e-006
0.209812523979 3.39483988453e-005 1.46059658663e-006
0.209954738301 3.47017873491e-005 1.47876426613e-006
0.210096952559 3.28574894784e-005 1.42948825055e-006
0.210239166753 3.46691946187e-005 1.47543232015e-006
0.210381380883 3.37070885308e-005 1.45044296322e-006
0.210523594949 3.25688575963e-005 1.42191745081e-006
0.210665808951 3.38839971271e-005 1.45757521011e-006
0.210808022888 3.56320843993e-005 1.50403521968e-006
0.210950236762 3.20885883594e-005 1.41346746983e-006
0.211092450571 3.37082641734e-005 1.45640938868e-006
0.211234664316 3.50393081768e-005 1.49143068583e-006
0.211376877996 3.10787688613e-005 1.38886312443e-006
0.211519091612 3.19287598493e-005 1.41195379456e-006
0.211661305164 3.11030174691e-005 1.39055413051e-006
0.211803518651 3.28348083758e-005 1.43600622047e-006
0.211945732074 3.16321758017e-005 1.40450591867e-006
0.212087945432 3.19689129223e-005 1.41335469702e-006
0.212230158725 3.34120720113e-005 1.45102788321e-006
0.212372371954 3.13435439838e-005 1.3969029909e-006
0.212514585118 3.24018606491e-005 1.42469864372e-006
0.212656798217 3.14878598927e-005 1.40070658082e-006
0.212799011252 3.16321758017e-005 1.40450591867e-006
0.212941224222 3.14397545897e-005 1.39943919168e-006
0.213083437127 3.07662803482e-005 1.3816454075e-006
0.213225649967 3.14878598927e-005 1.40070658082e-006
0.213367862742 3.17283864076e-005 1.40703646532e-006
0.213510075452 3.19208076194e-005 1.41209197539e-006
0.213652288097 3.10068068631e-005 1.38801121546e-006
0.213794500677 2.99484901978e-005 1.35990856619e-006
0.213936713191 2.92750159563e-005 1.3418958999e-006
0.214078925641 3.14397545897e-005 1.39943919168e-006
0.214221138026 2.92269106533e-005 1.34060530055e-006
0.214363350345 3.10549121661e-005 1.38928291508e-006
0.214505562599 3.36044932232e-005 1.45602140982e-006
0.214647774787 3.35082826173e-005 1.45352549211e-006
0.21478998691 2.81204886851e-005 1.31076955369e-006
0.214932198968 2.92269106533e-005 1.34060530055e-006
0.21507441096 2.9756068986e-005 1.35477259339e-006
0.215216622887 2.90344894415e-005 1.33543749868e-006
0.215358834748 3.05257538334e-005 1.37526729242e-006
0.215501046544 2.8312909897e-005 1.31597971376e-006
0.215643258274 2.96598583801e-005 1.35220147998e-006
0.215785469938 3.20651235283e-005 1.41587876187e-006
0.215927681536 3.15840704987e-005 1.40323994304e-006
0.216069893069 2.86496470177e-005 1.32507562448e-006
0.216212104536 3.04295432275e-005 1.37271256197e-006
0.216354315937 2.93712265622e-005 1.34447548816e-006
0.216496527272 2.97079636831e-005 1.3534872985e-006
0.216638738541 2.93712265622e-005 1.34447548816e-006
0.216780949745 3.03814379246e-005 1.37143444453e-006
0.216923160882 3.11030174691e-005 1.39055413051e-006
0.217065371953 2.95636477741e-005 1.34962826601e-006
0.217207582958 2.79761727762e-005 1.30685588607e-006
0.217349793897 3.26904924668e-005 1.4322410161e-006
0.217492004769 2.99003848948e-005 1.35862535104e-006
0.217634215576 3.07662803482e-005 1.3816454075e-006
0.217776426316 3.07181750453e-005 1.38037077451e-006
0.217918636989 3.13435439838e-005 1.3969029909e-006
0.218060847597 2.90344894415e-005 1.33543749868e-006
0.218203058137 2.98522795918e-005 1.35734161818e-006
0.218345268612 2.72545932317e-005 1.28720805778e-006
0.21848747902 2.82166992911e-005 1.31337577993e-006
0.218629689361 3.07662803482e-005 1.3816454075e-006
0.218771899636 2.90825947445e-005 1.33673026295e-006
0.218914109844 2.64368030814e-005 1.26477454655e-006
0.219056319986 2.60038553546e-005 1.25282350819e-006
0.21919853006 2.71583826259e-005 1.28457813335e-006
0.219340740068 2.8312909897e-005 1.31597971376e-006
0.219482950009 2.6917856111e-005 1.27799257013e-006
0.219625159884 2.91307000475e-005 1.33802248363e-006
0.219767369691 2.94674371682e-005 1.34705293945e-006
0.219909579431 2.81204886851e-005 1.31076955369e-006
0.220051789105 2.58114341429e-005 1.24749485823e-006
0.220193998711 2.59557500517e-005 1.2514923414e-006
0.22033620825 2.48012227805e-005 1.21934061639e-006
0.220478417723 2.59557500517e-005 1.2514923414e-006
0.220620627128 2.63886977784e-005 1.26344924753e-006
0.220762836466 2.58114341429e-005 1.24749485823e-006
0.220905045736 2.5667118234e-005 1.24349135601e-006
0.221047254939 2.47050121746e-005 1.21664312507e-006
0.221189464075 2.67254348991e-005 1.27271293429e-006
0.221331673144 2.63405924755e-005 1.26212330475e-006
0.221473882145 2.62443818695e-005 1.25946947977e-006
0.221616091079 2.52822758103e-005 1.23278547741e-006
0.221758299945 2.67254348991e-005 1.27271293429e-006
0.221900508744 2.50417492954e-005 1.22607185279e-006
0.222042717475 2.50417492954e-005 1.22607185279e-006
0.222184926138 2.5667118234e-005 1.24349135601e-006
0.222327134734 2.49455386895e-005 1.22338148791e-006
0.222469343262 2.62443818695e-005 1.25946947977e-006
0.222611551722 2.54265917191e-005 1.23680531786e-006
0.222753760115 2.5522802325e-005 1.23948177642e-006
0.222895968439 2.39353273273e-005 1.19495773189e-006
0.223038176696 2.50417492954e-005 1.22607185279e-006
0.223180384884 2.52822758103e-005 1.23278547741e-006
0.223322593005 2.46569068716e-005 1.21529329918e-006
0.223464801058 2.22997470264e-005 1.14821537364e-006
0.223607009043 2.50417492954e-005 1.22607185279e-006
0.223749216959 2.32618530857e-005 1.17582353097e-006
0.223891424807 2.5570907628e-005 1.24081898185e-006
0.224033632588 2.4127748539e-005 1.20039693491e-006
0.2241758403 2.39353273273e-005 1.19495773189e-006
0.224318047943 2.4079643236e-005 1.1990382665e-006
0.224460255518 2.35985902064e-005 1.18540972947e-006
0.224602463025 2.43201697509e-005 1.2058241277e-006
0.224744670464 2.49455386895e-005 1.22338148791e-006
0.224886877834 2.42720644479e-005 1.20446844658e-006
0.225029085136 2.45125909628e-005 1.21123947168e-006
0.225171292369 2.47050121746e-005 1.21664312507e-006
0.225313499533 2.64368030814e-005 1.26477454655e-006
0.225455706629 2.47531174776e-005 1.21799223001e-006
0.225597913656 2.4223959145e-005 1.20311202242e-006
0.225740120614 2.45125909628e-005 1.21123947168e-006
0.225882327504 2.49936439924e-005 1.22472702373e-006
0.226024534325 2.15781674819e-005 1.12728535653e-006
0.226166741077 2.64849083844e-005 1.26609920384e-006
0.22630894776 2.44163803569e-005 1.20853327082e-006
0.226451154374 2.53303811131e-005 1.23412611422e-006
0.226593360919 2.67735402021e-005 1.27403378307e-006
0.226735567395 2.35023796005e-005 1.18267475372e-006
0.226877773802 2.46569068716e-005 1.21529329918e-006
0.22701998014 2.4175853842e-005 1.20175485271e-006
0.227162186409 2.54265917191e-005 1.23680531786e-006
0.227304392608 2.2780800056e-005 1.16206082834e-006
0.227446598739 2.48493280835e-005 1.22068828658e-006
0.2275888048 2.30694318738e-005 1.17032819293e-006
0.227731010791 2.33099583887e-005 1.17719536176e-006
0.227873216714 2.2780800056e-005 1.16206082834e-006
0.228015422567 2.10971144523e-005 1.11321938866e-006
0.22815762835 2.22997470264e-005 1.14821537364e-006
0.228299834064 2.31175371768e-005 1.17170323531e-006
0.228442039709 2.24440629353e-005 1.15237787615e-006
0.228584245284 2.37910114183e-005 1.19087034891e-006
0.228726450789 2.4175853842e-005 1.20175485271e-006
0.228868656224 2.44644856598e-005 1.2098867378e-006
0.22901086159 2.44163803569e-005 1.20853327082e-006
0.229153066886 2.15300621789e-005 1.12588289491e-006
0.229295272113 2.40315379331e-005 1.1976788449e-006
0.229437477269 2.2828905359e-005 1.16344077386e-006
0.229579682355 2.19630099057e-005 1.13847270183e-006
0.229721887372 2.18667992997e-005 1.13568121029e-006
0.229864092319 2.18667992997e-005 1.13568121029e-006
0.230006297195 2.09046932404e-005 1.10756684644e-006
0.230148502002 2.08565879374e-005 1.10615133093e-006
0.230290706738 2.19149046027e-005 1.13707739763e-006
0.230432911405 2.30213265709e-005 1.16895234058e-006
0.230575116001 2.18667992997e-005 1.13568121029e-006
0.230717320526 2.12414303612e-005 1.11744890059e-006
0.230859524982 2.31175371768e-005 1.17170323531e-006
0.231001729367 2.26364841472e-005 1.15791601562e-006
0.231143933682 2.01350083929e-005 1.08480137345e-006
0.231286137927 2.10009038463e-005 1.11039501424e-006
0.231428342101 2.23959576323e-005 1.15099122783e-006
0.231570546204 2.21073258145e-005 1.14265334796e-006
0.231712750237 2.14819568759e-005 1.12447952355e-006
0.2318549542 2.00869030901e-005 1.08337005342e-006
0.231997158091 2.19630099057e-005 1.13847270183e-006
0.232139361912 2.17705886938e-005 1.13288617315e-006
0.232281565663 2.2780800056e-005 1.16206082834e-006
0.232423769342 2.20111152087e-005 1.13986712614e-006
0.232565972951 2.15300621789e-005 1.12588289491e-006
0.232708176489 2.08084826344e-005 1.10473485612e-006
0.232850379956 1.8739954607e-005 1.04286308263e-006
0.232992583352 2.07603773314e-005 1.10331741831e-006
0.233134786678 2.14338515729e-005 1.12307523904e-006
0.233276989932 2.18667992997e-005 1.13568121029e-006
0.233419193115 1.97501659692e-005 1.07332199338e-006
0.233561396227 1.95096394543e-005 1.06611338838e-006
0.233703599268 2.12414303612e-005 1.11744890059e-006
0.233845802237 2.05198508167e-005 1.09621565357e-006
0.233988005136 2.19630099057e-005 1.13847270183e-006
0.234130207963 2.17224833908e-005 1.13148731677e-006
0.234272410719 2.13857462701e-005 1.12167003794e-006
0.234414613403 1.96058500603e-005 1.06900001461e-006
0.234556816016 2.03274296048e-005 1.09051652297e-006
0.234699018558 1.89804811218e-005 1.05015938197e-006
0.234841221028 1.98944818782e-005 1.07763452161e-006
0.234983423427 1.97982712722e-005 1.07476054723e-006
0.235125625754 1.8739954607e-005 1.04286308263e-006
0.235267828009 1.8691849304e-005 1.04140040758e-006
0.235410030193 2.11933250582e-005 1.11603999849e-006
0.235552232305 2.03274296048e-005 1.09051652297e-006
0.235694434345 1.90766917277e-005 1.05307002128e-006
0.235836636314 2.04236402107e-005 1.09336807496e-006
0.23597883821 1.97020606663e-005 1.07188238949e-006
0.236121040035 1.97501659692e-005 1.07332199338e-006
0.236263241788 1.99906924841e-005 1.08050434601e-006
0.236405443469 1.98463765752e-005 1.07619805524e-006
0.236547645077 1.91247970307e-005 1.05452367092e-006
0.236689846614 1.8691849304e-005 1.04140040758e-006
0.236832048079 1.92210076366e-005 1.05742765316e-006
0.236974249471 1.75373220328e-005 1.00593973579e-006
0.237116450792 1.92691129396e-005 1.05887799484e-006
0.23725865204 1.95096394543e-005 1.06611338838e-006
0.237400853216 1.8739954607e-005 1.04286308263e-006
0.237543054319 2.08084826344e-005 1.10473485612e-006
0.23768525535 1.93653235456e-005 1.06177540189e-006
0.237827456309 1.94615341514e-005 1.0646684702e-006
0.237969657195 1.93653235456e-005 1.06177540189e-006
0.238111858009 1.76816379417e-005 1.01041095233e-006
0.238254058751 1.90766917277e-005 1.05307002128e-006
0.238396259419 1.84513227892e-005 1.03406969072e-006
0.238538460015 1.82589015773e-005 1.02818401041e-006
0.238680660539 1.88361652128e-005 1.04578500324e-006
0.238822860989 1.80183750625e-005 1.02079999404e-006
0.238965061367 1.90766917277e-005 1.05307002128e-006
0.239107261673 1.82589015773e-005 1.02818401041e-006
0.239249461905 1.72005849121e-005 9.95461985548e-007
0.239391662064 1.75854273357e-005 1.00743140927e-006
0.239533862151 1.84994280921e-005 1.03553816267e-006
0.239676062165 1.85956386981e-005 1.03847160383e-006
0.239818262105 1.76816379417e-005 1.01041095233e-006
0.239960461973 1.77297432447e-005 1.0118988331e-006
0.240102661767 1.7393006124e-005 1.00145703948e-006
0.240244861488 1.72486902151e-005 9.96962708551e-007
0.240387061136 1.79702697596e-005 1.01931955001e-006
0.240529260711 1.94134288485e-005 1.06322247617e-006
0.240671460213 1.69600583972e-005 9.87938507307e-007
0.240813659641 1.68638477913e-005 9.84919733192e-007
0.240955858996 1.67676371854e-005 9.81895523337e-007
0.241098058278 1.68638477913e-005 9.84919733192e-007
0.241240257486 1.65752159735e-005 9.75830594164e-007
0.24138245662 1.78259538506e-005 1.01487084084e-006
0.241524655681 1.86437440011e-005 1.03993658293e-006
0.241666854669 1.82107962743e-005 1.02670961684e-006
0.241809053583 1.84994280921e-005 1.03553816267e-006
0.241951252423 1.75854273357e-005 1.00743140927e-006
0.24209345119 1.7344900821e-005 9.99960229641e-007
0.242235649882 1.76335326387e-005 1.00892181291e-006
0.242377848501 1.55168993084e-005 9.42062195767e-007
0.242520047046 1.46510038549e-005 9.13877417286e-007
0.242662245518 1.83551121832e-005 1.03112921916e-006
0.242804443915 1.7393006124e-005 1.00145703948e-006
0.242946642239 1.65752159735e-005 9.75830594164e-007
0.243088840488 1.51801621875e-005 9.31163795721e-007
0.243231038663 1.56131099142e-005 9.45161930978e-007
0.243373236765 1.70081637002e-005 9.89445871514e-007
0.243515434792 1.64790053676e-005 9.72789771918e-007
0.243657632745 1.68638477913e-005 9.84919733192e-007
0.243799830623 1.70562690032e-005 9.90951895361e-007
0.243942028428 1.65271106706e-005 9.74310884941e-007
0.244084226158 1.82107962743e-005 1.02670961684e-006
0.244226423814 1.55168993084e-005 9.42062195767e-007
0.244368621395 1.68638477913e-005 9.84919733192e-007
0.244510818902 1.7393006124e-005 1.00145703948e-006
0.244653016334 1.69119530942e-005 9.86429796596e-007
0.244795213692 1.58055311261e-005 9.51343008518e-007
0.244937410976 1.66714265795e-005 9.78865827361e-007
0.245079608185 1.49877409756e-005 9.24900933819e-007
0.245221805319 1.63346894587e-005 9.68217943859e-007
0.245364002378 1.63827947616e-005 9.69743308044e-007
0.245506199363 1.70562690032e-005 9.90951895361e-007
0.245648396273 1.66714265795e-005 9.78865827361e-007
0.245790593108 1.54687940054e-005 9.40510002548e-007
0.245932789868 1.61422682469e-005 9.62102114301e-007
0.246074986553 1.62865841557e-005 9.66691149206e-007
0.246217183163 1.60941629439e-005 9.60569529389e-007
0.246359379699 1.52282674905e-005 9.32725470489e-007
0.246501576159 1.72005849121e-005 9.95461985548e-007
0.246643772544 1.66233212765e-005 9.77348906137e-007
0.246785968854 1.49396356727e-005 9.23331136525e-007
0.246928165089 1.48915303698e-005 9.21759689833e-007
0.247070361249 1.77297432447e-005 1.0118988331e-006
0.247212557333 1.62865841557e-005 9.66691149206e-007
0.247354753342 1.6046057641e-005 9.59035479567e-007
0.247496949276 1.65271106706e-005 9.74310884941e-007
0.247639145134 1.62384788527e-005 9.65162917296e-007
0.247781340917 1.4554793249e-005 9.10712661504e-007
0.247923536625 1.54206887024e-005 9.38956248671e-007
0.248065732256 1.82107962743e-005 1.02670961684e-006
0.248207927813 1.72486902151e-005 9.96962708551e-007
0.248350123294 1.61903735499e-005 9.6363324129e-007
0.248492318699 1.47472144609e-005 9.1703536853e-007
0.248634514028 1.56131099142e-005 9.45161930978e-007
0.248776709282 1.46991091579e-005 9.15457239071e-007
0.248918904459 1.49877409756e-005 9.24900933819e-007
0.249061099562 1.42661614311e-005 9.01176849274e-007
0.249203294588 1.39294243105e-005 8.89970860167e-007
0.249345489538 1.5901741732e-005 9.5442446996e-007
0.249487684412 1.49877409756e-005 9.24900933819e-007
0.249629879211 1.65752159735e-005 9.75830594164e-007
0.249772073933 1.51320568846e-005 9.29600512827e-007
0.249914268579 1.50358462786e-005 9.26469090098e-007
0.250056463149 1.52763727935e-005 9.34285545196e-007
0.250198657643 1.54687940054e-005 9.40510002548e-007
0.250340852061 1.51801621875e-005 9.31163795721e-007
0.250483046402 1.4554793249e-005 9.10712661504e-007
0.250625240667 1.52763727935e-005 9.34285545196e-007
0.250767434856 1.50358462786e-005 9.26469090098e-007
0.250909628968 1.34964765838e-005 8.75430029261e-007
0.251051823004 1.42180561283e-005 8.99581392298e-007
0.251194016964 1.46510038549e-005 9.13877417286e-007
0.251336210847 1.34483712808e-005 8.73804846098e-007
0.251478404653 1.46510038549e-005 9.13877417286e-007
0.251620598383 1.42661614311e-005 9.01176849274e-007
0.251762792036 1.4554793249e-005 9.10712661504e-007
0.251904985612 1.33521606749e-005 8.70548630699e-007
0.252047179112 1.23900546156e-005 8.37538258123e-007
0.252189372535 1.50358462786e-005 9.26469090098e-007
0.252331565881 1.27267917363e-005 8.49187283407e-007
0.25247375915 1.40256349164e-005 8.93181633513e-007
0.252615952343 1.39294243105e-005 8.89970860167e-007
0.252758145458 1.27748970393e-005 8.50842847982e-007
0.252900338496 1.49396356727e-005 9.23331136525e-007
0.253042531458 1.42180561283e-005 8.99581392298e-007
0.253184724342 1.25343705245e-005 8.42543697335e-007
0.253326917149 1.29673182512e-005 8.57444149132e-007
0.253469109879 1.37370030986e-005 8.83527129673e-007
0.253611302532 1.40256349164e-005 8.93181633513e-007
0.253753495107 1.35926871897e-005 8.78674600603e-007
0.253895687606 1.36888977956e-005 8.81911516349e-007
0.254037880026 1.47953197639e-005 9.18611814386e-007
0.25418007237 1.41699508253e-005 8.97984151808e-007
0.254322264636 1.40737402194e-005 8.94784282069e-007
0.254464456825 1.31116341601e-005 8.6237345666e-007
0.254606648936 1.20052121919e-005 8.24092189384e-007
0.254748840969 1.35926871897e-005 8.78674600603e-007
0.254891032925 1.34002659778e-005 8.72177716881e-007
0.255033224803 1.17165803741e-005 8.13910577044e-007
0.255175416604 1.29673182512e-005 8.57444149132e-007
0.255317608327 1.27748970393e-005 8.50842847982e-007
0.255459799972 1.26786864334e-005 8.47529598577e-007
0.255601991539 1.30154235541e-005 8.59089295521e-007
0.255744183029 1.12355273444e-005 7.96746888887e-007
0.25588637444 1.49396356727e-005 9.23331136525e-007
0.256028565774 1.32559500689e-005 8.67284543312e-007
0.256170757029 1.34002659778e-005 8.72177716881e-007
0.256312948207 1.13798432533e-005 8.01922209138e-007
0.256455139306 1.28230023423e-005 8.52496304655e-007
0.256597330327 1.3159739463e-005 8.64012494718e-007
0.256739521271 1.22457387067e-005 8.32512928525e-007
0.256881712136 1.21014227978e-005 8.27467346151e-007
0.257023902922 1.11874220414e-005 7.95016670109e-007
0.257166093631 1.30154235541e-005 8.59089295521e-007
0.257308284261 1.25343705245e-005 8.42543697335e-007
0.257450474812 1.25824758274e-005 8.44207818179e-007
0.257592665286 1.26305811304e-005 8.45869781027e-007
0.257734855681 1.26305811304e-005 8.45869781027e-007
0.257877045997 1.28230023423e-005 8.52496304655e-007
0.258019236235 1.22457387067e-005 8.32512928525e-007
0.258161426394 1.33040553719e-005 8.68917576543e-007
0.258303616474 1.14760538592e-005 8.05359806764e-007
0.258445806476 1.25824758274e-005 8.44207818179e-007
0.258587996399 1.11874220414e-005 7.95016670109e-007
0.258730186243 1.20052121919e-005 8.24092189384e-007
0.258872376009 1.30154235541e-005 8.59089295521e-007
0.259014565696 1.20533174948e-005 8.25780920621e-007
0.259156755303 1.14760538592e-005 8.05359806764e-007
0.259298944832 1.19090015859e-005 8.20707752838e-007
0.259441134282 1.25824758274e-005 8.44207818179e-007
0.259583323653 1.15241591622e-005 8.07074869211e-007
0.259725512944 1.1860896283e-005 8.19012018711e-007
0.259867702157 1.21495281007e-005 8.29151480043e-007
0.26000989129 1.1764685677e-005 8.15613445647e-007
0.260152080345 1.22938440096e-005 8.34190270593e-007
0.26029426932 1.14760538592e-005 8.05359806764e-007
0.260436458215 1.22457387067e-005 8.32512928525e-007
0.260578647032 1.23900546156e-005 8.37538258123e-007
0.260720835769 1.19090015859e-005 8.20707752838e-007
0.260863024426 1.06582637088e-005 7.75809906576e-007
0.261005213004 1.05139477999e-005 7.70514333933e-007
0.261147401503 1.06101584059e-005 7.7404752171e-007
0.261289589922 1.1860896283e-005 8.19012018711e-007
0.261431778261 1.181279098e-005 8.17313921234e-007
0.261573966521 1.08025796177e-005 7.81080452918e-007
0.261716154701 1.26786864334e-005 8.47529598577e-007
0.261858342802 1.21976334037e-005 8.30833336233e-007
0.262000530822 1.17165803741e-005 8.13910577044e-007
0.262142718763 1.15241591622e-005 8.07074869211e-007
0.262284906624 1.33040553719e-005 8.68917576543e-007
0.262427094405 1.13317379503e-005 8.00199641858e-007
0.262569282106 1.1764685677e-005 8.15613445647e-007
0.262711469728 1.181279098e-005 8.17313921234e-007
0.262853657269 1.09468955266e-005 7.86326476193e-007
0.26299584473 1.13317379503e-005 8.00199641858e-007
0.263138032111 1.1860896283e-005 8.19012018711e-007
0.263280219412 1.19090015859e-005 8.20707752838e-007
0.263422406632 1.02253159821e-005 7.59846014292e-007
0.263564593773 1.16203697681e-005 8.10497600437e-007
0.263706780833 1.14760538592e-005 8.05359806764e-007
0.263848967812 1.13798432533e-005 8.01922209138e-007
0.263991154712 1.08506849207e-005 7.82831827733e-007
0.264133341531 1.16684750711e-005 8.12205300375e-007
0.264275528269 1.08987902237e-005 7.84580496141e-007
0.264417714927 1.07063690118e-005 7.77569510876e-007
0.264559901505 9.88857886138e-006 7.47264629146e-007
0.264702088001 1.12836326474e-005 7.98474540594e-007
0.264844274418 1.01772106792e-005 7.58057722474e-007
0.264986460753 1.12836326474e-005 7.98474540594e-007
0.265128647008 1.05620531029e-005 7.72282337244e-007
0.265270833182 1.13317379503e-005 8.00199641858e-007
0.265413019275 9.98478946732e-006 7.50874536485e-007
0.265555205288 1.05139477999e-005 7.70514333933e-007
0.265697391219 1.15241591622e-005 8.07074869211e-007
0.26583957707 1.08025796177e-005 7.81080452918e-007
0.265981762839 1.06101584059e-005 7.7404752171e-007
0.266123948528 1.1860896283e-005 8.19012018711e-007
0.266266134135 9.93668416434e-006 7.49071127359e-007
0.266408319662 1.19090015859e-005 8.20707752838e-007
0.266550505107 9.93668416434e-006 7.49071127359e-007
0.266692690471 9.69615764952e-006 7.40007292369e-007
0.266834875754 1.08025796177e-005 7.81080452918e-007
0.266977060955 1.01291053762e-005 7.56266450132e-007
0.267119246076 1.01291053762e-005 7.56266450132e-007
0.267261431115 1.07544743148e-005 7.79326353446e-007
0.267403616072 1.02253159821e-005 7.59846014292e-007
0.267545800948 1.06101584059e-005 7.7404752171e-007
0.267687985742 9.74426295248e-006 7.41826374108e-007
0.267830170455 1.00810000732e-005 7.54472176039e-007
0.267972355087 9.88857886138e-006 7.47264629146e-007
0.268114539636 1.08987902237e-005 7.84580496141e-007
0.268256724104 9.5999470436e-006 7.36359493124e-007
0.268398908491 1.15722644652e-005 8.08787461883e-007
0.268541092795 9.74426295248e-006 7.41826374108e-007
0.268683277018 1.02734212851e-005 7.61631346581e-007
0.268825461159 9.64805234656e-006 7.38185006636e-007
0.268967645218 1.06101584059e-005 7.7404752171e-007
0.269109829195 1.0417737194e-005 7.66969792779e-007
0.26925201309 1.0465842497e-005 7.68743492332e-007
0.269394196903 1.01772106792e-005 7.58057722474e-007
0.269536380634 1.06101584059e-005 7.7404752171e-007
0.269678564283 1.05139477999e-005 7.70514333933e-007
0.26982074785 8.97457810504e-006 7.12322738337e-007
0.269962931335 9.64805234656e-006 7.38185006636e-007
0.270105114737 1.0465842497e-005 7.68743492332e-007
0.270247298057 9.1669993169e-006 7.19780554855e-007
0.270389481295 9.1669993169e-006 7.19780554855e-007
0.27053166445 9.69615764952e-006 7.40007292369e-007
0.270673847523 8.87836749912e-006 7.08572387775e-007
0.270816030514 9.69615764952e-006 7.40007292369e-007
0.270958213422 9.50373643766e-006 7.32698686212e-007
0.271100396247 9.35942052876e-006 7.27182656542e-007
0.27124257899 8.30110386354e-006 6.85755260402e-007
0.27138476165 9.02268340802e-006 7.14192510959e-007
0.271526944228 1.02253159821e-005 7.59846014292e-007
0.271669126723 9.26320992284e-006 7.2348846287e-007
0.271811309135 8.25299856056e-006 6.83828440045e-007
0.271953491464 9.3113152258e-006 7.25337260884e-007
0.272095673711 9.55184174062e-006 7.34530727766e-007
0.272237855874 8.68594628726e-006 7.01027654925e-007
0.272380037955 9.5999470436e-006 7.36359493124e-007
0.272522219953 8.92647280208e-006 7.10449373439e-007
0.272664401868 8.68594628726e-006 7.01027654925e-007
0.272806583699 9.93668416434e-006 7.49071127359e-007
0.272948765448 8.25299856056e-006 6.83828440045e-007
0.273090947113 9.74426295248e-006 7.41826374108e-007
0.273233128695 9.02268340802e-006 7.14192510959e-007
0.273375310194 9.07078871098e-006 7.16058719447e-007
0.27351749161 9.88857886138e-006 7.47264629146e-007
0.273659672942 9.35942052876e-006 7.27182656542e-007
0.273801854191 9.4556311347e-006 7.30863343827e-007
0.273944035357 8.3492091665e-006 6.87678054579e-007
0.274086216439 9.07078871098e-006 7.16058719447e-007
0.274228397438 8.87836749912e-006 7.08572387775e-007
0.274370578353 8.2048932576e-006 6.8189755938e-007
0.274512759185 8.83026219614e-006 7.06691752491e-007
0.274654939933 1.00328947703e-005 7.52674878727e-007
0.274797120597 9.64805234656e-006 7.38185006636e-007
0.274939301178 1.01772106792e-005 7.58057722474e-007
0.275081481674 9.3113152258e-006 7.25337260884e-007
0.275223662087 8.73405159022e-006 7.0291941584e-007
0.275365842417 9.11889401394e-006 7.17921391594e-007
0.275508022662 8.2048932576e-006 6.8189755938e-007
0.275650202823 8.25299856056e-006 6.83828440045e-007
0.275792382901 8.73405159022e-006 7.0291941584e-007
0.275934562894 8.3492091665e-006 6.87678054579e-007
0.276076742803 9.21510461988e-006 7.21636236351e-007
0.276218922629 8.39731446946e-006 6.89596856256e-007
0.27636110237 8.58973568132e-006 6.97232796172e-007
0.276503282027 8.25299856056e-006 6.83828440045e-007
0.276645461599 8.4935250754e-006 6.9342261461e-007
0.276787641088 9.4556311347e-006 7.30863343827e-007
0.276929820492 7.91626143982e-006 6.70225038546e-007
0.277071999812 7.86815613684e-006 6.6826474032e-007
0.277214179047 8.10868265168e-006 6.78023478292e-007
0.277356358198 7.96436674278e-006 6.72181024174e-007
0.277498537264 7.96436674278e-006 6.72181024174e-007
0.277640716246 8.87836749912e-006 7.08572387775e-007
0.277782895144 8.01247204574e-006 6.74132734742e-007
0.277925073956 8.58973568132e-006 6.97232796172e-007
0.278067252684 7.96436674278e-006 6.72181024174e-007
0.278209431328 8.10868265168e-006 6.78023478292e-007
0.278351609886 8.44541977242e-006 6.91511698666e-007
0.27849378836 8.73405159022e-006 7.0291941584e-007
0.278635966749 7.05036598644e-006 6.34240755028e-007
0.278778145053 8.73405159022e-006 7.0291941584e-007
0.278920323272 8.39731446946e-006 6.89596856256e-007
0.279062501407 8.39731446946e-006 6.89596856256e-007
0.279204679456 6.95415538051e-006 6.30145623377e-007
0.27934685742 7.67573492498e-006 6.60379652075e-007
0.279489035299 6.47310235086e-006 6.09350172634e-007
0.279631213093 8.63784098428e-006 6.99132125281e-007
0.279773390802 8.10868265168e-006 6.78023478292e-007
0.279915568425 8.10868265168e-006 6.78023478292e-007
0.280057745963 7.91626143982e-006 6.70225038546e-007
0.280199923416 7.05036598644e-006 6.34240755028e-007
0.280342100784 8.30110386354e-006 6.85755260402e-007
0.280484278066 7.62762962202e-006 6.5839720904e-007
0.280626455263 7.86815613684e-006 6.6826474032e-007
0.280768632374 7.77194553092e-006 6.64331053287e-007
0.2809108094 7.91626143982e-006 6.70225038546e-007
0.28105298634 7.72384022796e-006 6.62357586734e-007
0.281195163195 7.96436674278e-006 6.72181024174e-007
0.281337339963 6.1363652301e-006 5.94455084051e-007
0.281479516647 6.47310235086e-006 6.09350172634e-007
0.281621693244 7.91626143982e-006 6.70225038546e-007
0.281763869756 8.30110386354e-006 6.85755260402e-007
0.281906046182 8.78215689318e-006 7.04807438376e-007
0.282048222522 7.00226068348e-006 6.32195758516e-007
0.282190398776 7.91626143982e-006 6.70225038546e-007
0.282332574944 8.15678795464e-006 6.79962583815e-007
0.282474751026 6.76173416865e-006 6.21892678224e-007
0.282616927022 7.57952431906e-006 6.56410216781e-007
0.282759102932 8.10868265168e-006 6.78023478292e-007
0.282901278755 7.33899780423e-006 6.46405545474e-007
0.283043454493 7.29089250126e-006 6.44390366164e-007
0.283185630145 7.29089250126e-006 6.44390366164e-007
0.28332780571 8.15678795464e-006 6.79962583815e-007
0.283469981189 7.62762962202e-006 6.5839720904e-007
0.283612156581 6.52120765382e-006 6.11454597697e-007
0.283754331887 6.85794477458e-006 6.26029735149e-007
0.283896507107 7.67573492498e-006 6.60379652075e-007
0.28403868224 7.67573492498e-006 6.60379652075e-007
0.284180857287 8.58973568132e-006 6.97232796172e-007
0.284323032247 6.47310235086e-006 6.09350172634e-007
